wave,flux,fluxerr
300.00000,8.2575447e-17,2.8961147e-19
300.10000,8.2571784e-17,2.8961147e-19
300.20000,8.2568117e-17,2.8961147e-19
300.30000,8.2564442e-17,2.8961147e-19
300.40000,8.2560753e-17,2.8961147e-19
300.50000,8.2557043e-17,2.8961147e-19
300.60000,8.2553302e-17,2.8961147e-19
300.70000,8.2549518e-17,2.8961147e-19
300.80000,8.2545677e-17,2.8961147e-19
300.90000,8.2541766e-17,2.8961147e-19
301.00000,8.2537776e-17,2.8961147e-19
301.10000,8.2533698e-17,2.8961147e-19
301.20000,8.2529531e-17,2.8961147e-19
301.30000,8.2525280e-17,2.8961147e-19
301.40000,8.2520953e-17,2.8961147e-19
301.50000,8.2516562e-17,2.8961147e-19
301.60000,8.2512119e-17,2.8961147e-19
301.70000,8.2507639e-17,2.8961147e-19
301.80000,8.2503131e-17,2.8961147e-19
301.90000,8.2498606e-17,2.8961147e-19
302.00000,8.2494070e-17,2.8961147e-19
302.10000,8.2489525e-17,2.8961147e-19
302.20000,8.2484975e-17,2.8961147e-19
302.30000,8.2480417e-17,2.8961147e-19
302.40000,8.2475850e-17,2.8961147e-19
302.50000,8.2471268e-17,2.8961147e-19
302.60000,8.2466664e-17,2.8961147e-19
302.70000,8.2462030e-17,2.8961147e-19
302.80000,8.2457356e-17,2.8961147e-19
302.90000,8.2452631e-17,2.8961147e-19
303.00000,8.2447847e-17,2.8961147e-19
303.10000,8.2442997e-17,2.8961147e-19
303.20000,8.2438077e-17,2.8961147e-19
303.30000,8.2433090e-17,2.8961147e-19
303.40000,8.2428040e-17,2.8961147e-19
303.50000,8.2422934e-17,2.8961147e-19
303.60000,8.2417784e-17,2.8961147e-19
303.70000,8.2412599e-17,2.8961147e-19
303.80000,8.2407389e-17,2.8961147e-19
303.90000,8.2402160e-17,2.8961147e-19
304.00000,8.2396919e-17,2.8961147e-19
304.10000,8.2391667e-17,2.8961147e-19
304.20000,8.2386406e-17,2.8961147e-19
304.30000,8.2381131e-17,2.8961147e-19
304.40000,8.2375837e-17,2.8961147e-19
304.50000,8.2370514e-17,2.8961147e-19
304.60000,8.2365148e-17,2.8961147e-19
304.70000,8.2359723e-17,2.8961147e-19
304.80000,8.2354221e-17,2.8961147e-19
304.90000,8.2348627e-17,2.8961147e-19
305.00000,8.2342925e-17,2.8961147e-19
305.10000,8.2337107e-17,2.8961147e-19
305.20000,8.2331172e-17,2.8961147e-19
305.30000,8.2325125e-17,2.8961147e-19
305.40000,8.2318979e-17,2.8961147e-19
305.50000,8.2312748e-17,2.8961147e-19
305.60000,8.2306451e-17,2.8961147e-19
305.70000,8.2300104e-17,2.8961147e-19
305.80000,8.2293723e-17,2.8961147e-19
305.90000,8.2287320e-17,2.8961147e-19
306.00000,8.2280903e-17,2.8961147e-19
306.10000,8.2274477e-17,2.8961147e-19
306.20000,8.2268047e-17,2.8961147e-19
306.30000,8.2261615e-17,2.8961147e-19
306.40000,8.2255182e-17,2.8961147e-19
306.50000,8.2248749e-17,2.8961147e-19
306.60000,8.2242315e-17,2.8961147e-19
306.70000,8.2235881e-17,2.8961147e-19
306.80000,8.2229447e-17,2.8961147e-19
306.90000,8.2223013e-17,2.8961147e-19
307.00000,8.2216579e-17,2.8961147e-19
307.10000,8.2210145e-17,2.8961147e-19
307.20000,8.2203711e-17,2.8961147e-19
307.30000,8.2197278e-17,2.8961147e-19
307.40000,8.2190844e-17,2.8961147e-19
307.50000,8.2184410e-17,2.8961147e-19
307.60000,8.2177976e-17,2.8961147e-19
307.70000,8.2171541e-17,2.8961147e-19
307.80000,8.2165107e-17,2.8961147e-19
307.90000,8.2158671e-17,2.8961147e-19
308.00000,8.2152234e-17,2.8961147e-19
308.10000,8.2145792e-17,2.8961147e-19
308.20000,8.2139343e-17,2.8961147e-19
308.30000,8.2132880e-17,2.8961147e-19
308.40000,8.2126395e-17,2.8961147e-19
308.50000,8.2119875e-17,2.8961147e-19
308.60000,8.2113304e-17,2.8961147e-19
308.70000,8.2106662e-17,2.8961147e-19
308.80000,8.2099929e-17,2.8961147e-19
308.90000,8.2093085e-17,2.8961147e-19
309.00000,8.2086115e-17,2.8961147e-19
309.10000,8.2079007e-17,2.8961147e-19
309.20000,8.2071763e-17,2.8961147e-19
309.30000,8.2064387e-17,2.8961147e-19
309.40000,8.2056896e-17,2.8961147e-19
309.50000,8.2049307e-17,2.8961147e-19
309.60000,8.2041641e-17,2.8961147e-19
309.70000,8.2033918e-17,2.8961147e-19
309.80000,8.2026156e-17,2.8961147e-19
309.90000,8.2018368e-17,2.8961147e-19
310.00000,8.2010565e-17,2.8961147e-19
310.10000,8.2002752e-17,2.8961147e-19
310.20000,8.1994934e-17,2.8961147e-19
310.30000,8.1987114e-17,2.8961147e-19
310.40000,8.1979292e-17,2.8961147e-19
310.50000,8.1971470e-17,2.8961147e-19
310.60000,8.1963648e-17,2.8961147e-19
310.70000,8.1955826e-17,2.8961147e-19
310.80000,8.1948004e-17,2.8961147e-19
310.90000,8.1940181e-17,2.8961147e-19
311.00000,8.1932359e-17,2.8961147e-19
311.10000,8.1924537e-17,2.8961147e-19
311.20000,8.1916714e-17,2.8961147e-19
311.30000,8.1908892e-17,2.8961147e-19
311.40000,8.1901070e-17,2.8961147e-19
311.50000,8.1893247e-17,2.8961147e-19
311.60000,8.1885425e-17,2.8961147e-19
311.70000,8.1877603e-17,2.8961147e-19
311.80000,8.1869780e-17,2.8961147e-19
311.90000,8.1861958e-17,2.8961147e-19
312.00000,8.1854136e-17,2.8961147e-19
312.10000,8.1846313e-17,2.8961147e-19
312.20000,8.1838491e-17,2.8961147e-19
312.30000,8.1830669e-17,2.8961147e-19
312.40000,8.1822846e-17,2.8961147e-19
312.50000,8.1815024e-17,2.8961147e-19
312.60000,8.1807202e-17,2.8961147e-19
312.70000,8.1799379e-17,2.8961147e-19
312.80000,8.1791557e-17,2.8961147e-19
312.90000,8.1783735e-17,2.8961147e-19
313.00000,8.1775912e-17,2.8961147e-19
313.10000,8.1768090e-17,2.8961147e-19
313.20000,8.1760268e-17,2.8961147e-19
313.30000,8.1752445e-17,2.8961147e-19
313.40000,8.1744623e-17,2.8961147e-19
313.50000,8.1736800e-17,2.8961147e-19
313.60000,8.1728978e-17,2.8961147e-19
313.70000,8.1721154e-17,2.8961147e-19
313.80000,8.1713329e-17,2.8961147e-19
313.90000,8.1705501e-17,2.8961147e-19
314.00000,8.1697666e-17,2.8961147e-19
314.10000,8.1689821e-17,2.8961147e-19
314.20000,8.1681956e-17,2.8961147e-19
314.30000,8.1674060e-17,2.8961147e-19
314.40000,8.1666118e-17,2.8961147e-19
314.50000,8.1658109e-17,2.8961147e-19
314.60000,8.1650012e-17,2.8961147e-19
314.70000,8.1641805e-17,2.8961147e-19
314.80000,8.1633467e-17,2.8961147e-19
314.90000,8.1624985e-17,2.8961147e-19
315.00000,8.1616353e-17,2.8961147e-19
315.10000,8.1607575e-17,2.8961147e-19
315.20000,8.1598662e-17,2.8961147e-19
315.30000,8.1589632e-17,2.8961147e-19
315.40000,8.1580508e-17,2.8961147e-19
315.50000,8.1571312e-17,2.8961147e-19
315.60000,8.1562064e-17,2.8961147e-19
315.70000,8.1552781e-17,2.8961147e-19
315.80000,8.1543473e-17,2.8961147e-19
315.90000,8.1534148e-17,2.8961147e-19
316.00000,8.1524809e-17,2.8961147e-19
316.10000,8.1515454e-17,2.8961147e-19
316.20000,8.1506079e-17,2.8961147e-19
316.30000,8.1496676e-17,2.8961147e-19
316.40000,8.1487234e-17,2.8961147e-19
316.50000,8.1477744e-17,2.8961147e-19
316.60000,8.1468193e-17,2.8961147e-19
316.70000,8.1458575e-17,2.8961147e-19
316.80000,8.1448883e-17,2.8961147e-19
316.90000,8.1439117e-17,2.8961147e-19
317.00000,8.1429280e-17,2.8961147e-19
317.10000,8.1419380e-17,2.8961147e-19
317.20000,8.1409428e-17,2.8961147e-19
317.30000,8.1399433e-17,2.8961147e-19
317.40000,8.1389408e-17,2.8961147e-19
317.50000,8.1379362e-17,2.8961147e-19
317.60000,8.1369301e-17,2.8961147e-19
317.70000,8.1359232e-17,2.8961147e-19
317.80000,8.1349157e-17,2.8961147e-19
317.90000,8.1339080e-17,2.8961147e-19
318.00000,8.1329002e-17,2.8961147e-19
318.10000,8.1318923e-17,2.8961147e-19
318.20000,8.1308844e-17,2.8961147e-19
318.30000,8.1298764e-17,2.8961147e-19
318.40000,8.1288685e-17,2.8961147e-19
318.50000,8.1278605e-17,2.8961147e-19
318.60000,8.1268526e-17,2.8961147e-19
318.70000,8.1258446e-17,2.8961147e-19
318.80000,8.1248366e-17,2.8961147e-19
318.90000,8.1238287e-17,2.8961147e-19
319.00000,8.1228207e-17,2.8961147e-19
319.10000,8.1218128e-17,2.8961147e-19
319.20000,8.1208048e-17,2.8961147e-19
319.30000,8.1197969e-17,2.8961147e-19
319.40000,8.1187889e-17,2.8961147e-19
319.50000,8.1177809e-17,2.8961147e-19
319.60000,8.1167728e-17,2.8961147e-19
319.70000,8.1157646e-17,2.8961147e-19
319.80000,8.1147561e-17,2.8961147e-19
319.90000,8.1137472e-17,2.8961147e-19
320.00000,8.1127373e-17,2.8961147e-19
320.10000,8.1117259e-17,2.8961147e-19
320.20000,8.1107122e-17,2.8961147e-19
320.30000,8.1096952e-17,2.8961147e-19
320.40000,8.1086734e-17,2.8961147e-19
320.50000,8.1076457e-17,2.8961147e-19
320.60000,8.1066107e-17,2.8961147e-19
320.70000,8.1055673e-17,2.8961147e-19
320.80000,8.1045151e-17,2.8961147e-19
320.90000,8.1034538e-17,2.8961147e-19
321.00000,8.1023841e-17,2.8961147e-19
321.10000,8.1013068e-17,2.8961147e-19
321.20000,8.1002233e-17,2.8961147e-19
321.30000,8.0991347e-17,2.8961147e-19
321.40000,8.0980425e-17,2.8961147e-19
321.50000,8.0969478e-17,2.8961147e-19
321.60000,8.0958514e-17,2.8961147e-19
321.70000,8.0947540e-17,2.8961147e-19
321.80000,8.0936560e-17,2.8961147e-19
321.90000,8.0925577e-17,2.8961147e-19
322.00000,8.0914592e-17,2.8961147e-19
322.10000,8.0903607e-17,2.8961147e-19
322.20000,8.0892621e-17,2.8961147e-19
322.30000,8.0881636e-17,2.8961147e-19
322.40000,8.0870650e-17,2.8961147e-19
322.50000,8.0859664e-17,2.8961147e-19
322.60000,8.0848678e-17,2.8961147e-19
322.70000,8.0837692e-17,2.8961147e-19
322.80000,8.0826706e-17,2.8961147e-19
322.90000,8.0815720e-17,2.8961147e-19
323.00000,8.0804734e-17,2.8961147e-19
323.10000,8.0793748e-17,2.8961147e-19
323.20000,8.0782762e-17,2.8961147e-19
323.30000,8.0771776e-17,2.8961147e-19
323.40000,8.0760790e-17,2.8961147e-19
323.50000,8.0749803e-17,2.8961147e-19
323.60000,8.0738816e-17,2.8961147e-19
323.70000,8.0727826e-17,2.8961147e-19
323.80000,8.0716833e-17,2.8961147e-19
323.90000,8.0705833e-17,2.8961147e-19
324.00000,8.0694820e-17,2.8961147e-19
324.10000,8.0683786e-17,2.8961147e-19
324.20000,8.0672720e-17,2.8961147e-19
324.30000,8.0661607e-17,2.8961147e-19
324.40000,8.0650431e-17,2.8961147e-19
324.50000,8.0639172e-17,2.8961147e-19
324.60000,8.0627814e-17,2.8961147e-19
324.70000,8.0616343e-17,2.8961147e-19
324.80000,8.0604751e-17,2.8961147e-19
324.90000,8.0593039e-17,2.8961147e-19
325.00000,8.0581213e-17,2.8961147e-19
325.10000,8.0569286e-17,2.8961147e-19
325.20000,8.0557275e-17,2.8961147e-19
325.30000,8.0545198e-17,2.8961147e-19
325.40000,8.0533073e-17,2.8961147e-19
325.50000,8.0520915e-17,2.8961147e-19
325.60000,8.0508735e-17,2.8961147e-19
325.70000,8.0496542e-17,2.8961147e-19
325.80000,8.0484341e-17,2.8961147e-19
325.90000,8.0472137e-17,2.8961147e-19
326.00000,8.0459930e-17,2.8961147e-19
326.10000,8.0447722e-17,2.8961147e-19
326.20000,8.0435514e-17,2.8961147e-19
326.30000,8.0423305e-17,2.8961147e-19
326.40000,8.0411097e-17,2.8961147e-19
326.50000,8.0398889e-17,2.8961147e-19
326.60000,8.0386680e-17,2.8961147e-19
326.70000,8.0374472e-17,2.8961147e-19
326.80000,8.0362263e-17,2.8961147e-19
326.90000,8.0350055e-17,2.8961147e-19
327.00000,8.0337846e-17,2.8961147e-19
327.10000,8.0325638e-17,2.8961147e-19
327.20000,8.0313429e-17,2.8961147e-19
327.30000,8.0301221e-17,2.8961147e-19
327.40000,8.0289012e-17,2.8961147e-19
327.50000,8.0276804e-17,2.8961147e-19
327.60000,8.0264595e-17,2.8961147e-19
327.70000,8.0252387e-17,2.8961147e-19
327.80000,8.0240178e-17,2.8961147e-19
327.90000,8.0227970e-17,2.8961147e-19
328.00000,8.0215761e-17,2.8961147e-19
328.10000,8.0203553e-17,2.8961147e-19
328.20000,8.0191344e-17,2.8961147e-19
328.30000,8.0179136e-17,2.8961147e-19
328.40000,8.0166927e-17,2.8961147e-19
328.50000,8.0154719e-17,2.8961147e-19
328.60000,8.0142510e-17,2.8961147e-19
328.70000,8.0130302e-17,2.8961147e-19
328.80000,8.0118093e-17,2.8961147e-19
328.90000,8.0105885e-17,2.8961147e-19
329.00000,8.0093677e-17,2.8961147e-19
329.10000,8.0081468e-17,2.8961147e-19
329.20000,8.0069260e-17,2.8961147e-19
329.30000,8.0057051e-17,2.8961147e-19
329.40000,8.0044843e-17,2.8961147e-19
329.50000,8.0032634e-17,2.8961147e-19
329.60000,8.0020425e-17,2.8961147e-19
329.70000,8.0008216e-17,2.8961147e-19
329.80000,7.9996006e-17,2.8961147e-19
329.90000,7.9983794e-17,2.8961147e-19
330.00000,7.9971578e-17,2.8961147e-19
330.10000,7.9959356e-17,2.8961147e-19
330.20000,7.9947123e-17,2.8961147e-19
330.30000,7.9934873e-17,2.8961147e-19
330.40000,7.9922598e-17,2.8961147e-19
330.50000,7.9910287e-17,2.8961147e-19
330.60000,7.9897930e-17,2.8961147e-19
330.70000,7.9885516e-17,2.8961147e-19
330.80000,7.9873035e-17,2.8961147e-19
330.90000,7.9860481e-17,2.8961147e-19
331.00000,7.9847854e-17,2.8961147e-19
331.10000,7.9835155e-17,2.8961147e-19
331.20000,7.9822391e-17,2.8961147e-19
331.30000,7.9809572e-17,2.8961147e-19
331.40000,7.9796708e-17,2.8961147e-19
331.50000,7.9783808e-17,2.8961147e-19
331.60000,7.9770880e-17,2.8961147e-19
331.70000,7.9757931e-17,2.8961147e-19
331.80000,7.9744962e-17,2.8961147e-19
331.90000,7.9731975e-17,2.8961147e-19
332.00000,7.9718968e-17,2.8961147e-19
332.10000,7.9705939e-17,2.8961147e-19
332.20000,7.9692886e-17,2.8961147e-19
332.30000,7.9679805e-17,2.8961147e-19
332.40000,7.9666695e-17,2.8961147e-19
332.50000,7.9653554e-17,2.8961147e-19
332.60000,7.9640382e-17,2.8961147e-19
332.70000,7.9627179e-17,2.8961147e-19
332.80000,7.9613945e-17,2.8961147e-19
332.90000,7.9600685e-17,2.8961147e-19
333.00000,7.9587400e-17,2.8961147e-19
333.10000,7.9574095e-17,2.8961147e-19
333.20000,7.9560774e-17,2.8961147e-19
333.30000,7.9547440e-17,2.8961147e-19
333.40000,7.9534098e-17,2.8961147e-19
333.50000,7.9520748e-17,2.8961147e-19
333.60000,7.9507394e-17,2.8961147e-19
333.70000,7.9494034e-17,2.8961147e-19
333.80000,7.9480669e-17,2.8961147e-19
333.90000,7.9467294e-17,2.8961147e-19
334.00000,7.9453907e-17,2.8961147e-19
334.10000,7.9440501e-17,2.8961147e-19
334.20000,7.9427068e-17,2.8961147e-19
334.30000,7.9413600e-17,2.8961147e-19
334.40000,7.9400088e-17,2.8961147e-19
334.50000,7.9386526e-17,2.8961147e-19
334.60000,7.9372908e-17,2.8961147e-19
334.70000,7.9359233e-17,2.8961147e-19
334.80000,7.9345502e-17,2.8961147e-19
334.90000,7.9331722e-17,2.8961147e-19
335.00000,7.9317898e-17,2.8961147e-19
335.10000,7.9304040e-17,2.8961147e-19
335.20000,7.9290156e-17,2.8961147e-19
335.30000,7.9276254e-17,2.8961147e-19
335.40000,7.9262340e-17,2.8961147e-19
335.50000,7.9248418e-17,2.8961147e-19
335.60000,7.9234491e-17,2.8961147e-19
335.70000,7.9220562e-17,2.8961147e-19
335.80000,7.9206631e-17,2.8961147e-19
335.90000,7.9192700e-17,2.8961147e-19
336.00000,7.9178769e-17,2.8961147e-19
336.10000,7.9164837e-17,2.8961147e-19
336.20000,7.9150906e-17,2.8961147e-19
336.30000,7.9136974e-17,2.8961147e-19
336.40000,7.9123043e-17,2.8961147e-19
336.50000,7.9109111e-17,2.8961147e-19
336.60000,7.9095179e-17,2.8961147e-19
336.70000,7.9081248e-17,2.8961147e-19
336.80000,7.9067316e-17,2.8961147e-19
336.90000,7.9053384e-17,2.8961147e-19
337.00000,7.9039453e-17,2.8961147e-19
337.10000,7.9025520e-17,2.8961147e-19
337.20000,7.9011587e-17,2.8961147e-19
337.30000,7.8997652e-17,2.8961147e-19
337.40000,7.8983714e-17,2.8961147e-19
337.50000,7.8969769e-17,2.8961147e-19
337.60000,7.8955814e-17,2.8961147e-19
337.70000,7.8941842e-17,2.8961147e-19
337.80000,7.8927844e-17,2.8961147e-19
337.90000,7.8913809e-17,2.8961147e-19
338.00000,7.8899727e-17,2.8961147e-19
338.10000,7.8885585e-17,2.8961147e-19
338.20000,7.8871373e-17,2.8961147e-19
338.30000,7.8857084e-17,2.8961147e-19
338.40000,7.8842715e-17,2.8961147e-19
338.50000,7.8828268e-17,2.8961147e-19
338.60000,7.8813750e-17,2.8961147e-19
338.70000,7.8799171e-17,2.8961147e-19
338.80000,7.8784542e-17,2.8961147e-19
338.90000,7.8769877e-17,2.8961147e-19
339.00000,7.8755184e-17,2.8961147e-19
339.10000,7.8740474e-17,2.8961147e-19
339.20000,7.8725753e-17,2.8961147e-19
339.30000,7.8711025e-17,2.8961147e-19
339.40000,7.8696293e-17,2.8961147e-19
339.50000,7.8681559e-17,2.8961147e-19
339.60000,7.8666825e-17,2.8961147e-19
339.70000,7.8652090e-17,2.8961147e-19
339.80000,7.8637355e-17,2.8961147e-19
339.90000,7.8622619e-17,2.8961147e-19
340.00000,7.8607884e-17,2.8961147e-19
340.10000,7.8593149e-17,2.8961147e-19
340.20000,7.8578413e-17,2.8961147e-19
340.30000,7.8563678e-17,2.8961147e-19
340.40000,7.8548943e-17,2.8961147e-19
340.50000,7.8534207e-17,2.8961147e-19
340.60000,7.8519472e-17,2.8961147e-19
340.70000,7.8504737e-17,2.8961147e-19
340.80000,7.8490001e-17,2.8961147e-19
340.90000,7.8475266e-17,2.8961147e-19
341.00000,7.8460531e-17,2.8961147e-19
341.10000,7.8445796e-17,2.8961147e-19
341.20000,7.8431060e-17,2.8961147e-19
341.30000,7.8416325e-17,2.8961147e-19
341.40000,7.8401590e-17,2.8961147e-19
341.50000,7.8386854e-17,2.8961147e-19
341.60000,7.8372119e-17,2.8961147e-19
341.70000,7.8357384e-17,2.8961147e-19
341.80000,7.8342648e-17,2.8961147e-19
341.90000,7.8327913e-17,2.8961147e-19
342.00000,7.8313178e-17,2.8961147e-19
342.10000,7.8298442e-17,2.8961147e-19
342.20000,7.8283707e-17,2.8961147e-19
342.30000,7.8268972e-17,2.8961147e-19
342.40000,7.8254236e-17,2.8961147e-19
342.50000,7.8239501e-17,2.8961147e-19
342.60000,7.8224766e-17,2.8961147e-19
342.70000,7.8210030e-17,2.8961147e-19
342.80000,7.8195295e-17,2.8961147e-19
342.90000,7.8180560e-17,2.8961147e-19
343.00000,7.8165824e-17,2.8961147e-19
343.10000,7.8151089e-17,2.8961147e-19
343.20000,7.8136353e-17,2.8961147e-19
343.30000,7.8121617e-17,2.8961147e-19
343.40000,7.8106879e-17,2.8961147e-19
343.50000,7.8092138e-17,2.8961147e-19
343.60000,7.8077393e-17,2.8961147e-19
343.70000,7.8062639e-17,2.8961147e-19
343.80000,7.8047870e-17,2.8961147e-19
343.90000,7.8033080e-17,2.8961147e-19
344.00000,7.8018259e-17,2.8961147e-19
344.10000,7.8003396e-17,2.8961147e-19
344.20000,7.7988479e-17,2.8961147e-19
344.30000,7.7973498e-17,2.8961147e-19
344.40000,7.7958445e-17,2.8961147e-19
344.50000,7.7943315e-17,2.8961147e-19
344.60000,7.7928110e-17,2.8961147e-19
344.70000,7.7912835e-17,2.8961147e-19
344.80000,7.7897498e-17,2.8961147e-19
344.90000,7.7882109e-17,2.8961147e-19
345.00000,7.7866682e-17,2.8961147e-19
345.10000,7.7851226e-17,2.8961147e-19
345.20000,7.7835751e-17,2.8961147e-19
345.30000,7.7820263e-17,2.8961147e-19
345.40000,7.7804767e-17,2.8961147e-19
345.50000,7.7789267e-17,2.8961147e-19
345.60000,7.7773764e-17,2.8961147e-19
345.70000,7.7758261e-17,2.8961147e-19
345.80000,7.7742756e-17,2.8961147e-19
345.90000,7.7727250e-17,2.8961147e-19
346.00000,7.7711742e-17,2.8961147e-19
346.10000,7.7696230e-17,2.8961147e-19
346.20000,7.7680712e-17,2.8961147e-19
346.30000,7.7665186e-17,2.8961147e-19
346.40000,7.7649647e-17,2.8961147e-19
346.50000,7.7634089e-17,2.8961147e-19
346.60000,7.7618509e-17,2.8961147e-19
346.70000,7.7602900e-17,2.8961147e-19
346.80000,7.7587260e-17,2.8961147e-19
346.90000,7.7571585e-17,2.8961147e-19
347.00000,7.7555875e-17,2.8961147e-19
347.10000,7.7540133e-17,2.8961147e-19
347.20000,7.7524362e-17,2.8961147e-19
347.30000,7.7508567e-17,2.8961147e-19
347.40000,7.7492752e-17,2.8961147e-19
347.50000,7.7476924e-17,2.8961147e-19
347.60000,7.7461086e-17,2.8961147e-19
347.70000,7.7445241e-17,2.8961147e-19
347.80000,7.7429393e-17,2.8961147e-19
347.90000,7.7413543e-17,2.8961147e-19
348.00000,7.7397691e-17,2.8961147e-19
348.10000,7.7381839e-17,2.8961147e-19
348.20000,7.7365986e-17,2.8961147e-19
348.30000,7.7350133e-17,2.8961147e-19
348.40000,7.7334279e-17,2.8961147e-19
348.50000,7.7318425e-17,2.8961147e-19
348.60000,7.7302569e-17,2.8961147e-19
348.70000,7.7286711e-17,2.8961147e-19
348.80000,7.7270847e-17,2.8961147e-19
348.90000,7.7254976e-17,2.8961147e-19
349.00000,7.7239094e-17,2.8961147e-19
349.10000,7.7223195e-17,2.8961147e-19
349.20000,7.7207275e-17,2.8961147e-19
349.30000,7.7191327e-17,2.8961147e-19
349.40000,7.7175348e-17,2.8961147e-19
349.50000,7.7159332e-17,2.8961147e-19
349.60000,7.7143279e-17,2.8961147e-19
349.70000,7.7127189e-17,2.8961147e-19
349.80000,7.7111063e-17,2.8961147e-19
349.90000,7.7094905e-17,2.8961147e-19
350.00000,7.7078717e-17,2.8961147e-19
350.10000,7.7062502e-17,2.8961147e-19
350.20000,7.7046261e-17,2.8961147e-19
350.30000,7.7029994e-17,2.8961147e-19
350.40000,7.7013701e-17,2.8961147e-19
350.50000,7.6997380e-17,2.8961147e-19
350.60000,7.6981031e-17,2.8961147e-19
350.70000,7.6964655e-17,2.8961147e-19
350.80000,7.6948253e-17,2.8961147e-19
350.90000,7.6931828e-17,2.8961147e-19
351.00000,7.6915384e-17,2.8961147e-19
351.10000,7.6898925e-17,2.8961147e-19
351.20000,7.6882455e-17,2.8961147e-19
351.30000,7.6865977e-17,2.8961147e-19
351.40000,7.6849494e-17,2.8961147e-19
351.50000,7.6833008e-17,2.8961147e-19
351.60000,7.6816520e-17,2.8961147e-19
351.70000,7.6800032e-17,2.8961147e-19
351.80000,7.6783543e-17,2.8961147e-19
351.90000,7.6767053e-17,2.8961147e-19
352.00000,7.6750563e-17,2.8961147e-19
352.10000,7.6734074e-17,2.8961147e-19
352.20000,7.6717584e-17,2.8961147e-19
352.30000,7.6701095e-17,2.8961147e-19
352.40000,7.6684605e-17,2.8961147e-19
