wave,flux,fluxerr
300.10000,7.0911634e-16,1.8448902e-18
300.20000,7.0854578e-16,1.8448902e-18
300.30000,7.0789771e-16,1.8448902e-18
300.40000,7.0718780e-16,1.8448902e-18
300.50000,7.0642937e-16,1.8448902e-18
300.60000,7.0563422e-16,1.8448902e-18
300.70000,7.0481635e-16,1.8448902e-18
300.80000,7.0399471e-16,1.8448902e-18
300.90000,7.0319115e-16,1.8448902e-18
301.00000,7.0242318e-16,1.8448902e-18
301.10000,7.0169625e-16,1.8448902e-18
301.20000,7.0100084e-16,1.8448902e-18
301.30000,7.0031712e-16,1.8448902e-18
301.40000,6.9962466e-16,1.8448902e-18
301.50000,6.9891181e-16,1.8448902e-18
301.60000,6.9818067e-16,1.8448902e-18
301.70000,6.9744601e-16,1.8448902e-18
301.80000,6.9672932e-16,1.8448902e-18
301.90000,6.9604949e-16,1.8448902e-18
302.00000,6.9541271e-16,1.8448902e-18
302.10000,6.9480523e-16,1.8448902e-18
302.20000,6.9419379e-16,1.8448902e-18
302.30000,6.9353656e-16,1.8448902e-18
302.40000,6.9280210e-16,1.8448902e-18
302.50000,6.9198706e-16,1.8448902e-18
302.60000,6.9112197e-16,1.8448902e-18
302.70000,6.9026051e-16,1.8448902e-18
302.80000,6.8945737e-16,1.8448902e-18
302.90000,6.8874680e-16,1.8448902e-18
303.00000,6.8813093e-16,1.8448902e-18
303.10000,6.8757986e-16,1.8448902e-18
303.20000,6.8703850e-16,1.8448902e-18
303.30000,6.8643319e-16,1.8448902e-18
303.40000,6.8567299e-16,1.8448902e-18
303.50000,6.8464427e-16,1.8448902e-18
303.60000,6.8320328e-16,1.8448902e-18
303.70000,6.8117941e-16,1.8448902e-18
303.80000,6.7840120e-16,1.8448902e-18
303.90000,6.7473956e-16,1.8448902e-18
304.00000,6.7013589e-16,1.8448902e-18
304.10000,6.6458448e-16,1.8448902e-18
304.20000,6.5809467e-16,1.8448902e-18
304.30000,6.5072868e-16,1.8448902e-18
304.40000,6.4279052e-16,1.8448902e-18
304.50000,6.3508135e-16,1.8448902e-18
304.60000,6.2895850e-16,1.8448902e-18
304.70000,6.2596852e-16,1.8448902e-18
304.80000,6.2713863e-16,1.8448902e-18
304.90000,6.3235940e-16,1.8448902e-18
305.00000,6.4031448e-16,1.8448902e-18
305.10000,6.4903770e-16,1.8448902e-18
305.20000,6.5673018e-16,1.8448902e-18
305.30000,6.6234174e-16,1.8448902e-18
305.40000,6.6567406e-16,1.8448902e-18
305.50000,6.6711698e-16,1.8448902e-18
305.60000,6.6729374e-16,1.8448902e-18
305.70000,6.6681372e-16,1.8448902e-18
305.80000,6.6616495e-16,1.8448902e-18
305.90000,6.6567929e-16,1.8448902e-18
306.00000,6.6551057e-16,1.8448902e-18
306.10000,6.6562294e-16,1.8448902e-18
306.20000,6.6582213e-16,1.8448902e-18
306.30000,6.6584464e-16,1.8448902e-18
306.40000,6.6547418e-16,1.8448902e-18
306.50000,6.6462709e-16,1.8448902e-18
306.60000,6.6336568e-16,1.8448902e-18
306.70000,6.6184667e-16,1.8448902e-18
306.80000,6.6024849e-16,1.8448902e-18
306.90000,6.5872048e-16,1.8448902e-18
307.00000,6.5736658e-16,1.8448902e-18
307.10000,6.5624891e-16,1.8448902e-18
307.20000,6.5539252e-16,1.8448902e-18
307.30000,6.5478627e-16,1.8448902e-18
307.40000,6.5438526e-16,1.8448902e-18
307.50000,6.5411962e-16,1.8448902e-18
307.60000,6.5390782e-16,1.8448902e-18
307.70000,6.5367081e-16,1.8448902e-18
307.80000,6.5334467e-16,1.8448902e-18
307.90000,6.5289036e-16,1.8448902e-18
308.00000,6.5229679e-16,1.8448902e-18
308.10000,6.5157432e-16,1.8448902e-18
308.20000,6.5074148e-16,1.8448902e-18
308.30000,6.4981392e-16,1.8448902e-18
308.40000,6.4880456e-16,1.8448902e-18
308.50000,6.4773543e-16,1.8448902e-18
308.60000,6.4665100e-16,1.8448902e-18
308.70000,6.4561794e-16,1.8448902e-18
308.80000,6.4470430e-16,1.8448902e-18
308.90000,6.4394658e-16,1.8448902e-18
309.00000,6.4332575e-16,1.8448902e-18
309.10000,6.4277025e-16,1.8448902e-18
309.20000,6.4218726e-16,1.8448902e-18
309.30000,6.4150570e-16,1.8448902e-18
309.40000,6.4070865e-16,1.8448902e-18
309.50000,6.3984087e-16,1.8448902e-18
309.60000,6.3898929e-16,1.8448902e-18
309.70000,6.3824582e-16,1.8448902e-18
309.80000,6.3766905e-16,1.8448902e-18
309.90000,6.3726311e-16,1.8448902e-18
310.00000,6.3698344e-16,1.8448902e-18
310.10000,6.3676346e-16,1.8448902e-18
310.20000,6.3654313e-16,1.8448902e-18
310.30000,6.3628197e-16,1.8448902e-18
310.40000,6.3595396e-16,1.8448902e-18
310.50000,6.3553682e-16,1.8448902e-18
310.60000,6.3500952e-16,1.8448902e-18
310.70000,6.3436143e-16,1.8448902e-18
310.80000,6.3360368e-16,1.8448902e-18
310.90000,6.3277113e-16,1.8448902e-18
311.00000,6.3191149e-16,1.8448902e-18
311.10000,6.3106845e-16,1.8448902e-18
311.20000,6.3026889e-16,1.8448902e-18
311.30000,6.2951986e-16,1.8448902e-18
311.40000,6.2881368e-16,1.8448902e-18
311.50000,6.2813637e-16,1.8448902e-18
311.60000,6.2747477e-16,1.8448902e-18
311.70000,6.2682020e-16,1.8448902e-18
311.80000,6.2616869e-16,1.8448902e-18
311.90000,6.2551906e-16,1.8448902e-18
312.00000,6.2487067e-16,1.8448902e-18
312.10000,6.2422227e-16,1.8448902e-18
312.20000,6.2357228e-16,1.8448902e-18
312.30000,6.2291973e-16,1.8448902e-18
312.40000,6.2226465e-16,1.8448902e-18
312.50000,6.2160767e-16,1.8448902e-18
312.60000,6.2094897e-16,1.8448902e-18
312.70000,6.2028745e-16,1.8448902e-18
312.80000,6.1962067e-16,1.8448902e-18
312.90000,6.1894557e-16,1.8448902e-18
313.00000,6.1826020e-16,1.8448902e-18
313.10000,6.1756570e-16,1.8448902e-18
313.20000,6.1686755e-16,1.8448902e-18
313.30000,6.1617505e-16,1.8448902e-18
313.40000,6.1549827e-16,1.8448902e-18
313.50000,6.1484396e-16,1.8448902e-18
313.60000,6.1421265e-16,1.8448902e-18
313.70000,6.1359878e-16,1.8448902e-18
313.80000,6.1299370e-16,1.8448902e-18
313.90000,6.1238930e-16,1.8448902e-18
314.00000,6.1178050e-16,1.8448902e-18
314.10000,6.1116560e-16,1.8448902e-18
314.20000,6.1054530e-16,1.8448902e-18
314.30000,6.0992109e-16,1.8448902e-18
314.40000,6.0929386e-16,1.8448902e-18
314.50000,6.0866308e-16,1.8448902e-18
314.60000,6.0802724e-16,1.8448902e-18
314.70000,6.0738540e-16,1.8448902e-18
314.80000,6.0673919e-16,1.8448902e-18
314.90000,6.0609413e-16,1.8448902e-18
315.00000,6.0545888e-16,1.8448902e-18
315.10000,6.0484197e-16,1.8448902e-18
315.20000,6.0424738e-16,1.8448902e-18
315.30000,6.0367107e-16,1.8448902e-18
315.40000,6.0310100e-16,1.8448902e-18
315.50000,6.0252139e-16,1.8448902e-18
315.60000,6.0191912e-16,1.8448902e-18
315.70000,6.0128886e-16,1.8448902e-18
315.80000,6.0063415e-16,1.8448902e-18
315.90000,5.9996471e-16,1.8448902e-18
316.00000,5.9929260e-16,1.8448902e-18
316.10000,5.9863024e-16,1.8448902e-18
316.20000,5.9799108e-16,1.8448902e-18
316.30000,5.9739171e-16,1.8448902e-18
316.40000,5.9685246e-16,1.8448902e-18
316.50000,5.9639416e-16,1.8448902e-18
316.60000,5.9602956e-16,1.8448902e-18
316.70000,5.9575171e-16,1.8448902e-18
316.80000,5.9552595e-16,1.8448902e-18
316.90000,5.9529446e-16,1.8448902e-18
317.00000,5.9499599e-16,1.8448902e-18
317.10000,5.9459090e-16,1.8448902e-18
317.20000,5.9407363e-16,1.8448902e-18
317.30000,5.9346247e-16,1.8448902e-18
317.40000,5.9277580e-16,1.8448902e-18
317.50000,5.9201694e-16,1.8448902e-18
317.60000,5.9118076e-16,1.8448902e-18
317.70000,5.9027370e-16,1.8448902e-18
317.80000,5.8932641e-16,1.8448902e-18
317.90000,5.8838678e-16,1.8448902e-18
318.00000,5.8749968e-16,1.8448902e-18
318.10000,5.8668958e-16,1.8448902e-18
318.20000,5.8595663e-16,1.8448902e-18
318.30000,5.8528468e-16,1.8448902e-18
318.40000,5.8465301e-16,1.8448902e-18
318.50000,5.8404496e-16,1.8448902e-18
318.60000,5.8345107e-16,1.8448902e-18
318.70000,5.8286761e-16,1.8448902e-18
318.80000,5.8229280e-16,1.8448902e-18
318.90000,5.8172292e-16,1.8448902e-18
319.00000,5.8115039e-16,1.8448902e-18
319.10000,5.8056455e-16,1.8448902e-18
319.20000,5.7995264e-16,1.8448902e-18
319.30000,5.7929570e-16,1.8448902e-18
319.40000,5.7855285e-16,1.8448902e-18
319.50000,5.7763157e-16,1.8448902e-18
319.60000,5.7635274e-16,1.8448902e-18
319.70000,5.7443829e-16,1.8448902e-18
319.80000,5.7156527e-16,1.8448902e-18
319.90000,5.6751849e-16,1.8448902e-18
320.00000,5.6241256e-16,1.8448902e-18
320.10000,5.5686122e-16,1.8448902e-18
320.20000,5.5192820e-16,1.8448902e-18
320.30000,5.4878398e-16,1.8448902e-18
320.40000,5.4819931e-16,1.8448902e-18
320.50000,5.5016981e-16,1.8448902e-18
320.60000,5.5391931e-16,1.8448902e-18
320.70000,5.5827989e-16,1.8448902e-18
320.80000,5.6219886e-16,1.8448902e-18
320.90000,5.6507916e-16,1.8448902e-18
321.00000,5.6682497e-16,1.8448902e-18
321.10000,5.6766872e-16,1.8448902e-18
321.20000,5.6794377e-16,1.8448902e-18
321.30000,5.6792411e-16,1.8448902e-18
321.40000,5.6776338e-16,1.8448902e-18
321.50000,5.6750785e-16,1.8448902e-18
321.60000,5.6714377e-16,1.8448902e-18
321.70000,5.6664726e-16,1.8448902e-18
321.80000,5.6601596e-16,1.8448902e-18
321.90000,5.6527427e-16,1.8448902e-18
322.00000,5.6445656e-16,1.8448902e-18
322.10000,5.6358040e-16,1.8448902e-18
322.20000,5.6262069e-16,1.8448902e-18
322.30000,5.6149230e-16,1.8448902e-18
322.40000,5.6005181e-16,1.8448902e-18
322.50000,5.5813723e-16,1.8448902e-18
322.60000,5.5566060e-16,1.8448902e-18
322.70000,5.5273388e-16,1.8448902e-18
322.80000,5.4975427e-16,1.8448902e-18
322.90000,5.4735095e-16,1.8448902e-18
323.00000,5.4615489e-16,1.8448902e-18
323.10000,5.4648489e-16,1.8448902e-18
323.20000,5.4814402e-16,1.8448902e-18
323.30000,5.5047994e-16,1.8448902e-18
323.40000,5.5268584e-16,1.8448902e-18
323.50000,5.5414830e-16,1.8448902e-18
323.60000,5.5463071e-16,1.8448902e-18
323.70000,5.5422128e-16,1.8448902e-18
323.80000,5.5314228e-16,1.8448902e-18
323.90000,5.5158101e-16,1.8448902e-18
324.00000,5.4964433e-16,1.8448902e-18
324.10000,5.4742908e-16,1.8448902e-18
324.20000,5.4512126e-16,1.8448902e-18
324.30000,5.4302688e-16,1.8448902e-18
324.40000,5.4149240e-16,1.8448902e-18
324.50000,5.4075746e-16,1.8448902e-18
324.60000,5.4083851e-16,1.8448902e-18
324.70000,5.4152331e-16,1.8448902e-18
324.80000,5.4247641e-16,1.8448902e-18
324.90000,5.4338123e-16,1.8448902e-18
325.00000,5.4403537e-16,1.8448902e-18
325.10000,5.4436651e-16,1.8448902e-18
325.20000,5.4439373e-16,1.8448902e-18
325.30000,5.4417810e-16,1.8448902e-18
325.40000,5.4379010e-16,1.8448902e-18
325.50000,5.4329619e-16,1.8448902e-18
325.60000,5.4275463e-16,1.8448902e-18
325.70000,5.4221188e-16,1.8448902e-18
325.80000,5.4169841e-16,1.8448902e-18
325.90000,5.4122717e-16,1.8448902e-18
326.00000,5.4079769e-16,1.8448902e-18
326.10000,5.4040454e-16,1.8448902e-18
326.20000,5.4004425e-16,1.8448902e-18
326.30000,5.3971495e-16,1.8448902e-18
326.40000,5.3940799e-16,1.8448902e-18
326.50000,5.3909842e-16,1.8448902e-18
326.60000,5.3874462e-16,1.8448902e-18
326.70000,5.3830236e-16,1.8448902e-18
326.80000,5.3774780e-16,1.8448902e-18
326.90000,5.3709513e-16,1.8448902e-18
327.00000,5.3639630e-16,1.8448902e-18
327.10000,5.3572103e-16,1.8448902e-18
327.20000,5.3512718e-16,1.8448902e-18
327.30000,5.3463600e-16,1.8448902e-18
327.40000,5.3422309e-16,1.8448902e-18
327.50000,5.3382900e-16,1.8448902e-18
327.60000,5.3338555e-16,1.8448902e-18
327.70000,5.3284720e-16,1.8448902e-18
327.80000,5.3221329e-16,1.8448902e-18
327.90000,5.3153099e-16,1.8448902e-18
328.00000,5.3087886e-16,1.8448902e-18
328.10000,5.3033971e-16,1.8448902e-18
328.20000,5.2997249e-16,1.8448902e-18
328.30000,5.2978875e-16,1.8448902e-18
328.40000,5.2973873e-16,1.8448902e-18
328.50000,5.2971479e-16,1.8448902e-18
328.60000,5.2958006e-16,1.8448902e-18
328.70000,5.2921778e-16,1.8448902e-18
328.80000,5.2857967e-16,1.8448902e-18
328.90000,5.2770529e-16,1.8448902e-18
329.00000,5.2670003e-16,1.8448902e-18
329.10000,5.2568514e-16,1.8448902e-18
329.20000,5.2474994e-16,1.8448902e-18
329.30000,5.2392981e-16,1.8448902e-18
329.40000,5.2321370e-16,1.8448902e-18
329.50000,5.2256785e-16,1.8448902e-18
329.60000,5.2195883e-16,1.8448902e-18
329.70000,5.2136608e-16,1.8448902e-18
329.80000,5.2078291e-16,1.8448902e-18
329.90000,5.2021076e-16,1.8448902e-18
330.00000,5.1965218e-16,1.8448902e-18
330.10000,5.1910647e-16,1.8448902e-18
330.20000,5.1856917e-16,1.8448902e-18
330.30000,5.1803459e-16,1.8448902e-18
330.40000,5.1749916e-16,1.8448902e-18
330.50000,5.1696327e-16,1.8448902e-18
330.60000,5.1643048e-16,1.8448902e-18
330.70000,5.1590483e-16,1.8448902e-18
330.80000,5.1538813e-16,1.8448902e-18
330.90000,5.1487913e-16,1.8448902e-18
331.00000,5.1437456e-16,1.8448902e-18
331.10000,5.1387103e-16,1.8448902e-18
331.20000,5.1336640e-16,1.8448902e-18
331.30000,5.1285998e-16,1.8448902e-18
331.40000,5.1235199e-16,1.8448902e-18
331.50000,5.1184282e-16,1.8448902e-18
331.60000,5.1133225e-16,1.8448902e-18
331.70000,5.1081877e-16,1.8448902e-18
331.80000,5.1029873e-16,1.8448902e-18
331.90000,5.0976545e-16,1.8448902e-18
332.00000,5.0920879e-16,1.8448902e-18
332.10000,5.0861675e-16,1.8448902e-18
332.20000,5.0798032e-16,1.8448902e-18
332.30000,5.0730163e-16,1.8448902e-18
332.40000,5.0660209e-16,1.8448902e-18
332.50000,5.0592420e-16,1.8448902e-18
332.60000,5.0532149e-16,1.8448902e-18
332.70000,5.0483742e-16,1.8448902e-18
332.80000,5.0448281e-16,1.8448902e-18
332.90000,5.0422547e-16,1.8448902e-18
333.00000,5.0400019e-16,1.8448902e-18
333.10000,5.0373446e-16,1.8448902e-18
333.20000,5.0337642e-16,1.8448902e-18
333.30000,5.0291121e-16,1.8448902e-18
333.40000,5.0236084e-16,1.8448902e-18
333.50000,5.0177120e-16,1.8448902e-18
333.60000,5.0119380e-16,1.8448902e-18
333.70000,5.0066871e-16,1.8448902e-18
333.80000,5.0021292e-16,1.8448902e-18
333.90000,4.9981600e-16,1.8448902e-18
334.00000,4.9944338e-16,1.8448902e-18
334.10000,4.9904557e-16,1.8448902e-18
334.20000,4.9857084e-16,1.8448902e-18
334.30000,4.9797818e-16,1.8448902e-18
334.40000,4.9724678e-16,1.8448902e-18
334.50000,4.9637634e-16,1.8448902e-18
334.60000,4.9537067e-16,1.8448902e-18
334.70000,4.9419894e-16,1.8448902e-18
334.80000,4.9274258e-16,1.8448902e-18
334.90000,4.9076232e-16,1.8448902e-18
335.00000,4.8794171e-16,1.8448902e-18
335.10000,4.8404796e-16,1.8448902e-18
335.20000,4.7917377e-16,1.8448902e-18
335.30000,4.7391941e-16,1.8448902e-18
335.40000,4.6933702e-16,1.8448902e-18
335.50000,4.6656982e-16,1.8448902e-18
335.60000,4.6633816e-16,1.8448902e-18
335.70000,4.6857937e-16,1.8448902e-18
335.80000,4.7247962e-16,1.8448902e-18
335.90000,4.7687377e-16,1.8448902e-18
336.00000,4.8074915e-16,1.8448902e-18
336.10000,4.8356275e-16,1.8448902e-18
336.20000,4.8525896e-16,1.8448902e-18
336.30000,4.8608003e-16,1.8448902e-18
336.40000,4.8634119e-16,1.8448902e-18
336.50000,4.8628792e-16,1.8448902e-18
336.60000,4.8605438e-16,1.8448902e-18
336.70000,4.8568229e-16,1.8448902e-18
336.80000,4.8515649e-16,1.8448902e-18
336.90000,4.8443887e-16,1.8448902e-18
337.00000,4.8350260e-16,1.8448902e-18
337.10000,4.8236895e-16,1.8448902e-18
337.20000,4.8113417e-16,1.8448902e-18
337.30000,4.7996339e-16,1.8448902e-18
337.40000,4.7904025e-16,1.8448902e-18
337.50000,4.7849117e-16,1.8448902e-18
337.60000,4.7832836e-16,1.8448902e-18
337.70000,4.7844822e-16,1.8448902e-18
337.80000,4.7868487e-16,1.8448902e-18
337.90000,4.7888249e-16,1.8448902e-18
338.00000,4.7894470e-16,1.8448902e-18
338.10000,4.7884337e-16,1.8448902e-18
338.20000,4.7859825e-16,1.8448902e-18
338.30000,4.7824943e-16,1.8448902e-18
338.40000,4.7783766e-16,1.8448902e-18
338.50000,4.7739520e-16,1.8448902e-18
338.60000,4.7694359e-16,1.8448902e-18
338.70000,4.7649437e-16,1.8448902e-18
338.80000,4.7605155e-16,1.8448902e-18
338.90000,4.7561463e-16,1.8448902e-18
339.00000,4.7518129e-16,1.8448902e-18
339.10000,4.7474896e-16,1.8448902e-18
339.20000,4.7431530e-16,1.8448902e-18
339.30000,4.7387841e-16,1.8448902e-18
339.40000,4.7343716e-16,1.8448902e-18
339.50000,4.7299147e-16,1.8448902e-18
339.60000,4.7254213e-16,1.8448902e-18
339.70000,4.7209002e-16,1.8448902e-18
339.80000,4.7163504e-16,1.8448902e-18
339.90000,4.7117536e-16,1.8448902e-18
340.00000,4.7070734e-16,1.8448902e-18
340.10000,4.7022657e-16,1.8448902e-18
340.20000,4.6973031e-16,1.8448902e-18
340.30000,4.6922073e-16,1.8448902e-18
340.40000,4.6870739e-16,1.8448902e-18
340.50000,4.6820648e-16,1.8448902e-18
340.60000,4.6773499e-16,1.8448902e-18
340.70000,4.6730198e-16,1.8448902e-18
340.80000,4.6690209e-16,1.8448902e-18
340.90000,4.6651684e-16,1.8448902e-18
341.00000,4.6612373e-16,1.8448902e-18
341.10000,4.6570739e-16,1.8448902e-18
341.20000,4.6526539e-16,1.8448902e-18
341.30000,4.6480611e-16,1.8448902e-18
341.40000,4.6434156e-16,1.8448902e-18
341.50000,4.6388089e-16,1.8448902e-18
341.60000,4.6342762e-16,1.8448902e-18
341.70000,4.6298053e-16,1.8448902e-18
341.80000,4.6253590e-16,1.8448902e-18
341.90000,4.6208935e-16,1.8448902e-18
342.00000,4.6163677e-16,1.8448902e-18
342.10000,4.6117510e-16,1.8448902e-18
342.20000,4.6070337e-16,1.8448902e-18
342.30000,4.6022366e-16,1.8448902e-18
342.40000,4.5974116e-16,1.8448902e-18
342.50000,4.5926266e-16,1.8448902e-18
342.60000,4.5879406e-16,1.8448902e-18
342.70000,4.5833828e-16,1.8448902e-18
342.80000,4.5789500e-16,1.8448902e-18
342.90000,4.5746235e-16,1.8448902e-18
343.00000,4.5703921e-16,1.8448902e-18
343.10000,4.5662576e-16,1.8448902e-18
343.20000,4.5622093e-16,1.8448902e-18
343.30000,4.5581758e-16,1.8448902e-18
343.40000,4.5539820e-16,1.8448902e-18
343.50000,4.5493449e-16,1.8448902e-18
343.60000,4.5439220e-16,1.8448902e-18
343.70000,4.5374019e-16,1.8448902e-18
343.80000,4.5296073e-16,1.8448902e-18
343.90000,4.5205787e-16,1.8448902e-18
344.00000,4.5106141e-16,1.8448902e-18
344.10000,4.5002450e-16,1.8448902e-18
344.20000,4.4901355e-16,1.8448902e-18
344.30000,4.4809145e-16,1.8448902e-18
344.40000,4.4729928e-16,1.8448902e-18
344.50000,4.4664545e-16,1.8448902e-18
344.60000,4.4610599e-16,1.8448902e-18
344.70000,4.4562930e-16,1.8448902e-18
344.80000,4.4513313e-16,1.8448902e-18
344.90000,4.4449458e-16,1.8448902e-18
345.00000,4.4355703e-16,1.8448902e-18
345.10000,4.4218401e-16,1.8448902e-18
345.20000,4.4035805e-16,1.8448902e-18
345.30000,4.3826869e-16,1.8448902e-18
345.40000,4.3630799e-16,1.8448902e-18
345.50000,4.3493480e-16,1.8448902e-18
345.60000,4.3446491e-16,1.8448902e-18
345.70000,4.3491567e-16,1.8448902e-18
345.80000,4.3600905e-16,1.8448902e-18
345.90000,4.3732626e-16,1.8448902e-18
346.00000,4.3850342e-16,1.8448902e-18
346.10000,4.3934744e-16,1.8448902e-18
346.20000,4.3983270e-16,1.8448902e-18
346.30000,4.4002791e-16,1.8448902e-18
346.40000,4.4002651e-16,1.8448902e-18
346.50000,4.3991469e-16,1.8448902e-18
346.60000,4.3976369e-16,1.8448902e-18
346.70000,4.3962255e-16,1.8448902e-18
346.80000,4.3950708e-16,1.8448902e-18
346.90000,4.3939812e-16,1.8448902e-18
347.00000,4.3925625e-16,1.8448902e-18
347.10000,4.3904237e-16,1.8448902e-18
347.20000,4.3872742e-16,1.8448902e-18
347.30000,4.3828512e-16,1.8448902e-18
347.40000,4.3767882e-16,1.8448902e-18
347.50000,4.3685893e-16,1.8448902e-18
347.60000,4.3577838e-16,1.8448902e-18
347.70000,4.3441895e-16,1.8448902e-18
347.80000,4.3281453e-16,1.8448902e-18
347.90000,4.3106264e-16,1.8448902e-18
348.00000,4.2932340e-16,1.8448902e-18
348.10000,4.2780489e-16,1.8448902e-18
348.20000,4.2672706e-16,1.8448902e-18
348.30000,4.2626020e-16,1.8448902e-18
348.40000,4.2645568e-16,1.8448902e-18
348.50000,4.2720853e-16,1.8448902e-18
348.60000,4.2828400e-16,1.8448902e-18
348.70000,4.2940127e-16,1.8448902e-18
348.80000,4.3032913e-16,1.8448902e-18
348.90000,4.3094412e-16,1.8448902e-18
349.00000,4.3123204e-16,1.8448902e-18
349.10000,4.3124976e-16,1.8448902e-18
349.20000,4.3107847e-16,1.8448902e-18
349.30000,4.3079137e-16,1.8448902e-18
349.40000,4.3044097e-16,1.8448902e-18
349.50000,4.3005983e-16,1.8448902e-18
349.60000,4.2966597e-16,1.8448902e-18
349.70000,4.2926802e-16,1.8448902e-18
349.80000,4.2886874e-16,1.8448902e-18
349.90000,4.2846761e-16,1.8448902e-18
350.00000,4.2806304e-16,1.8448902e-18
350.10000,4.2765391e-16,1.8448902e-18
350.20000,4.2724024e-16,1.8448902e-18
350.30000,4.2682300e-16,1.8448902e-18
350.40000,4.2640369e-16,1.8448902e-18
350.50000,4.2598403e-16,1.8448902e-18
350.60000,4.2556575e-16,1.8448902e-18
350.70000,4.2515036e-16,1.8448902e-18
350.80000,4.2473878e-16,1.8448902e-18
350.90000,4.2433110e-16,1.8448902e-18
351.00000,4.2392658e-16,1.8448902e-18
351.10000,4.2352397e-16,1.8448902e-18
351.20000,4.2312191e-16,1.8448902e-18
351.30000,4.2271917e-16,1.8448902e-18
351.40000,4.2231468e-16,1.8448902e-18
351.50000,4.2190737e-16,1.8448902e-18
351.60000,4.2149617e-16,1.8448902e-18
351.70000,4.2108042e-16,1.8448902e-18
351.80000,4.2066072e-16,1.8448902e-18
351.90000,4.2023967e-16,1.8448902e-18
352.00000,4.1982176e-16,1.8448902e-18
352.10000,4.1941207e-16,1.8448902e-18
352.20000,4.1901434e-16,1.8448902e-18
352.30000,4.1862966e-16,1.8448902e-18
352.40000,4.1825681e-16,1.8448902e-18
352.50000,4.1789383e-16,1.8448902e-18
