wave,flux,fluxerr
300.00000,1.3401970e-17,1.4066941e-16
300.10000,1.3115831e-17,1.4066941e-16
300.20000,1.2850013e-17,1.4066941e-16
300.30000,1.2635296e-17,1.4066941e-16
300.40000,1.2509881e-17,1.4066941e-16
300.50000,1.2507804e-17,1.4066941e-16
300.60000,1.2648327e-17,1.4066941e-16
300.70000,1.2931638e-17,1.4066941e-16
300.80000,1.3342138e-17,1.4066941e-16
300.90000,1.3855775e-17,1.4066941e-16
301.00000,1.4445481e-17,1.4066941e-16
301.10000,1.5080421e-17,1.4066941e-16
301.20000,1.5719377e-17,1.4066941e-16
301.30000,1.6303435e-17,1.4066941e-16
301.40000,1.6754916e-17,1.4066941e-16
301.50000,1.6987140e-17,1.4066941e-16
301.60000,1.6924321e-17,1.4066941e-16
301.70000,1.6525575e-17,1.4066941e-16
301.80000,1.5804438e-17,1.4066941e-16
301.90000,1.4836523e-17,1.4066941e-16
302.00000,1.3752188e-17,1.4066941e-16
302.10000,1.2716252e-17,1.4066941e-16
302.20000,1.1900645e-17,1.4066941e-16
302.30000,1.1457141e-17,1.4066941e-16
302.40000,1.1495822e-17,1.4066941e-16
302.50000,1.2071896e-17,1.4066941e-16
302.60000,1.3180579e-17,1.4066941e-16
302.70000,1.4758427e-17,1.4066941e-16
302.80000,1.6689916e-17,1.4066941e-16
302.90000,1.8819293e-17,1.4066941e-16
303.00000,2.0968137e-17,1.4066941e-16
303.10000,2.2957785e-17,1.4066941e-16
303.20000,2.4633471e-17,1.4066941e-16
303.30000,2.5885263e-17,1.4066941e-16
303.40000,2.6661163e-17,1.4066941e-16
303.50000,2.6969999e-17,1.4066941e-16
303.60000,2.6874625e-17,1.4066941e-16
303.70000,2.6477794e-17,1.4066941e-16
303.80000,2.5903555e-17,1.4066941e-16
303.90000,2.5276750e-17,1.4066941e-16
304.00000,2.4703315e-17,1.4066941e-16
304.10000,2.4254630e-17,1.4066941e-16
304.20000,2.3959377e-17,1.4066941e-16
304.30000,2.3805210e-17,1.4066941e-16
304.40000,2.3750093e-17,1.4066941e-16
304.50000,2.3740286e-17,1.4066941e-16
304.60000,2.3729813e-17,1.4066941e-16
304.70000,2.3695603e-17,1.4066941e-16
304.80000,2.3643502e-17,1.4066941e-16
304.90000,2.3602910e-17,1.4066941e-16
305.00000,2.3611595e-17,1.4066941e-16
305.10000,2.3696240e-17,1.4066941e-16
305.20000,2.3856894e-17,1.4066941e-16
305.30000,2.4063050e-17,1.4066941e-16
305.40000,2.4265043e-17,1.4066941e-16
305.50000,2.4418215e-17,1.4066941e-16
305.60000,2.4511431e-17,1.4066941e-16
305.70000,2.4588504e-17,1.4066941e-16
305.80000,2.4752375e-17,1.4066941e-16
305.90000,2.5147178e-17,1.4066941e-16
306.00000,2.5921142e-17,1.4066941e-16
306.10000,2.7181334e-17,1.4066941e-16
306.20000,2.8956438e-17,1.4066941e-16
306.30000,3.1183202e-17,1.4066941e-16
306.40000,3.3724425e-17,1.4066941e-16
306.50000,3.6413253e-17,1.4066941e-16
306.60000,3.9105679e-17,1.4066941e-16
306.70000,4.1717486e-17,1.4066941e-16
306.80000,4.4227850e-17,1.4066941e-16
306.90000,4.6647852e-17,1.4066941e-16
307.00000,4.8970128e-17,1.4066941e-16
307.10000,5.1126075e-17,1.4066941e-16
307.20000,5.2973293e-17,1.4066941e-16
307.30000,5.4320403e-17,1.4066941e-16
307.40000,5.4977807e-17,1.4066941e-16
307.50000,5.4811655e-17,1.4066941e-16
307.60000,5.3779664e-17,1.4066941e-16
307.70000,5.1939243e-17,1.4066941e-16
307.80000,4.9432724e-17,1.4066941e-16
307.90000,4.6462875e-17,1.4066941e-16
308.00000,4.3270560e-17,1.4066941e-16
308.10000,4.0117723e-17,1.4066941e-16
308.20000,3.7269770e-17,1.4066941e-16
308.30000,3.4968451e-17,1.4066941e-16
308.40000,3.3392018e-17,1.4066941e-16
308.50000,3.2610547e-17,1.4066941e-16
308.60000,3.2553869e-17,1.4066941e-16
308.70000,3.3010978e-17,1.4066941e-16
308.80000,3.3670712e-17,1.4066941e-16
308.90000,3.4197405e-17,1.4066941e-16
309.00000,3.4319528e-17,1.4066941e-16
309.10000,3.3901740e-17,1.4066941e-16
309.20000,3.2975229e-17,1.4066941e-16
309.30000,3.1716179e-17,1.4066941e-16
309.40000,3.0381458e-17,1.4066941e-16
309.50000,2.9226316e-17,1.4066941e-16
309.60000,2.8434614e-17,1.4066941e-16
309.70000,2.8085888e-17,1.4066941e-16
309.80000,2.8167994e-17,1.4066941e-16
309.90000,2.8625675e-17,1.4066941e-16
310.00000,2.9421355e-17,1.4066941e-16
310.10000,3.0580535e-17,1.4066941e-16
310.20000,3.2201539e-17,1.4066941e-16
310.30000,3.4424961e-17,1.4066941e-16
310.40000,3.7375257e-17,1.4066941e-16
310.50000,4.1098512e-17,1.4066941e-16
310.60000,4.5521457e-17,1.4066941e-16
310.70000,5.0447474e-17,1.4066941e-16
310.80000,5.5590050e-17,1.4066941e-16
310.90000,6.0630148e-17,1.4066941e-16
311.00000,6.5277247e-17,1.4066941e-16
311.10000,6.9316063e-17,1.4066941e-16
311.20000,7.2629340e-17,1.4066941e-16
311.30000,7.5196638e-17,1.4066941e-16
311.40000,7.7075790e-17,1.4066941e-16
311.50000,7.8376843e-17,1.4066941e-16
311.60000,7.9238460e-17,1.4066941e-16
311.70000,7.9814541e-17,1.4066941e-16
311.80000,8.0273653e-17,1.4066941e-16
311.90000,8.0806469e-17,1.4066941e-16
312.00000,8.1629915e-17,1.4066941e-16
312.10000,8.2975729e-17,1.4066941e-16
312.20000,8.5057769e-17,1.4066941e-16
312.30000,8.8023587e-17,1.4066941e-16
312.40000,9.1904756e-17,1.4066941e-16
312.50000,9.6581819e-17,1.4066941e-16
312.60000,1.0177409e-16,1.4066941e-16
312.70000,1.0705730e-16,1.4066941e-16
312.80000,1.1190840e-16,1.4066941e-16
312.90000,1.1577711e-16,1.4066941e-16
313.00000,1.1818176e-16,1.4066941e-16
313.10000,1.1881906e-16,1.4066941e-16
313.20000,1.1766315e-16,1.4066941e-16
313.30000,1.1501892e-16,1.4066941e-16
313.40000,1.1149723e-16,1.4066941e-16
313.50000,1.0790106e-16,1.4066941e-16
313.60000,1.0504435e-16,1.4066941e-16
313.70000,1.0355525e-16,1.4066941e-16
313.80000,1.0372665e-16,1.4066941e-16
313.90000,1.0546215e-16,1.4066941e-16
314.00000,1.0833163e-16,1.4066941e-16
314.10000,1.1171220e-16,1.4066941e-16
314.20000,1.1496573e-16,1.4066941e-16
314.30000,1.1760098e-16,1.4066941e-16
314.40000,1.1938313e-16,1.4066941e-16
314.50000,1.2037431e-16,1.4066941e-16
314.60000,1.2090526e-16,1.4066941e-16
314.70000,1.2148711e-16,1.4066941e-16
314.80000,1.2267896e-16,1.4066941e-16
314.90000,1.2493570e-16,1.4066941e-16
315.00000,1.2847047e-16,1.4066941e-16
315.10000,1.3317079e-16,1.4066941e-16
315.20000,1.3859721e-16,1.4066941e-16
315.30000,1.4407019e-16,1.4066941e-16
315.40000,1.4882141e-16,1.4066941e-16
315.50000,1.5216446e-16,1.4066941e-16
315.60000,1.5363675e-16,1.4066941e-16
315.70000,1.5307813e-16,1.4066941e-16
315.80000,1.5063496e-16,1.4066941e-16
315.90000,1.4669878e-16,1.4066941e-16
316.00000,1.4180117e-16,1.4066941e-16
316.10000,1.3649154e-16,1.4066941e-16
316.20000,1.3122531e-16,1.4066941e-16
316.30000,1.2628972e-16,1.4066941e-16
316.40000,1.2178864e-16,1.4066941e-16
316.50000,1.1769384e-16,1.4066941e-16
316.60000,1.1394763e-16,1.4066941e-16
316.70000,1.1057932e-16,1.4066941e-16
316.80000,1.0778638e-16,1.4066941e-16
316.90000,1.0594047e-16,1.4066941e-16
317.00000,1.0550598e-16,1.4066941e-16
317.10000,1.0689434e-16,1.4066941e-16
317.20000,1.1030413e-16,1.4066941e-16
317.30000,1.1560403e-16,1.4066941e-16
317.40000,1.2230049e-16,1.4066941e-16
317.50000,1.2960325e-16,1.4066941e-16
317.60000,1.3657082e-16,1.4066941e-16
317.70000,1.4229463e-16,1.4066941e-16
317.80000,1.4607084e-16,1.4066941e-16
317.90000,1.4751436e-16,1.4066941e-16
318.00000,1.4658976e-16,1.4066941e-16
318.10000,1.4356231e-16,1.4066941e-16
318.20000,1.3889846e-16,1.4066941e-16
318.30000,1.3315751e-16,1.4066941e-16
318.40000,1.2690820e-16,1.4066941e-16
318.50000,1.2068124e-16,1.4066941e-16
318.60000,1.1494555e-16,1.4066941e-16
318.70000,1.1008625e-16,1.4066941e-16
318.80000,1.0637172e-16,1.4066941e-16
318.90000,1.0391628e-16,1.4066941e-16
319.00000,1.0265976e-16,1.4066941e-16
319.10000,1.0238420e-16,1.4066941e-16
319.20000,1.0277115e-16,1.4066941e-16
319.30000,1.0348218e-16,1.4066941e-16
319.40000,1.0423295e-16,1.4066941e-16
319.50000,1.0483677e-16,1.4066941e-16
319.60000,1.0521079e-16,1.4066941e-16
319.70000,1.0535772e-16,1.4066941e-16
319.80000,1.0534368e-16,1.4066941e-16
319.90000,1.0528666e-16,1.4066941e-16
320.00000,1.0535434e-16,1.4066941e-16
320.10000,1.0575720e-16,1.4066941e-16
320.20000,1.0672222e-16,1.4066941e-16
320.30000,1.0844336e-16,1.4066941e-16
320.40000,1.1102130e-16,1.4066941e-16
320.50000,1.1441428e-16,1.4066941e-16
320.60000,1.1841995e-16,1.4066941e-16
320.70000,1.2269625e-16,1.4066941e-16
320.80000,1.2681630e-16,1.4066941e-16
320.90000,1.3034460e-16,1.4066941e-16
321.00000,1.3292098e-16,1.4066941e-16
321.10000,1.3433890e-16,1.4066941e-16
321.20000,1.3460211e-16,1.4066941e-16
321.30000,1.3393955e-16,1.4066941e-16
321.40000,1.3276020e-16,1.4066941e-16
321.50000,1.3154418e-16,1.4066941e-16
321.60000,1.3069220e-16,1.4066941e-16
321.70000,1.3038063e-16,1.4066941e-16
321.80000,1.3047872e-16,1.4066941e-16
321.90000,1.3056812e-16,1.4066941e-16
322.00000,1.3006726e-16,1.4066941e-16
322.10000,1.2842062e-16,1.4066941e-16
322.20000,1.2528589e-16,1.4066941e-16
322.30000,1.2065368e-16,1.4066941e-16
322.40000,1.1486238e-16,1.4066941e-16
322.50000,1.0851153e-16,1.4066941e-16
322.60000,1.0231078e-16,1.4066941e-16
322.70000,9.6916363e-17,1.4066941e-16
322.80000,9.2801455e-17,1.4066941e-16
322.90000,9.0188752e-17,1.4066941e-16
323.00000,8.9053030e-17,1.4066941e-16
323.10000,8.9183862e-17,1.4066941e-16
323.20000,9.0285831e-17,1.4066941e-16
323.30000,9.2085346e-17,1.4066941e-16
323.40000,9.4411239e-17,1.4066941e-16
323.50000,9.7223682e-17,1.4066941e-16
323.60000,1.0058292e-16,1.4066941e-16
323.70000,1.0457156e-16,1.4066941e-16
323.80000,1.0920264e-16,1.4066941e-16
323.90000,1.1435187e-16,1.4066941e-16
324.00000,1.1974237e-16,1.4066941e-16
324.10000,1.2498883e-16,1.4066941e-16
324.20000,1.2968472e-16,1.4066941e-16
324.30000,1.3350258e-16,1.4066941e-16
324.40000,1.3627736e-16,1.4066941e-16
324.50000,1.3805414e-16,1.4066941e-16
324.60000,1.3909496e-16,1.4066941e-16
324.70000,1.3984718e-16,1.4066941e-16
324.80000,1.4087692e-16,1.4066941e-16
324.90000,1.4277128e-16,1.4066941e-16
325.00000,1.4601898e-16,1.4066941e-16
325.10000,1.5089244e-16,1.4066941e-16
325.20000,1.5736589e-16,1.4066941e-16
325.30000,1.6510281e-16,1.4066941e-16
325.40000,1.7352628e-16,1.4066941e-16
325.50000,1.8195520e-16,1.4066941e-16
325.60000,1.8976373e-16,1.4066941e-16
325.70000,1.9651420e-16,1.4066941e-16
325.80000,2.0202753e-16,1.4066941e-16
325.90000,2.0637889e-16,1.4066941e-16
326.00000,2.0982880e-16,1.4066941e-16
326.10000,2.1271384e-16,1.4066941e-16
326.20000,2.1532758e-16,1.4066941e-16
326.30000,2.1782248e-16,1.4066941e-16
326.40000,2.2015746e-16,1.4066941e-16
326.50000,2.2210229e-16,1.4066941e-16
326.60000,2.2329297e-16,1.4066941e-16
326.70000,2.2332116e-16,1.4066941e-16
326.80000,2.2183985e-16,1.4066941e-16
326.90000,2.1867341e-16,1.4066941e-16
327.00000,2.1392075e-16,1.4066941e-16
327.10000,2.0802828e-16,1.4066941e-16
327.20000,2.0179443e-16,1.4066941e-16
327.30000,1.9626837e-16,1.4066941e-16
327.40000,1.9253678e-16,1.4066941e-16
327.50000,1.9144485e-16,1.4066941e-16
327.60000,1.9334297e-16,1.4066941e-16
327.70000,1.9795679e-16,1.4066941e-16
327.80000,2.0443657e-16,1.4066941e-16
327.90000,2.1157115e-16,1.4066941e-16
328.00000,2.1808983e-16,1.4066941e-16
328.10000,2.2295177e-16,1.4066941e-16
328.20000,2.2554267e-16,1.4066941e-16
328.30000,2.2574540e-16,1.4066941e-16
328.40000,2.2389598e-16,1.4066941e-16
328.50000,2.2066145e-16,1.4066941e-16
328.60000,2.1687933e-16,1.4066941e-16
328.70000,2.1339026e-16,1.4066941e-16
328.80000,2.1088756e-16,1.4066941e-16
328.90000,2.0980478e-16,1.4066941e-16
329.00000,2.1025960e-16,1.4066941e-16
329.10000,2.1206491e-16,1.4066941e-16
329.20000,2.1480322e-16,1.4066941e-16
329.30000,2.1794352e-16,1.4066941e-16
329.40000,2.2096877e-16,1.4066941e-16
329.50000,2.2348141e-16,1.4066941e-16
329.60000,2.2526267e-16,1.4066941e-16
329.70000,2.2627516e-16,1.4066941e-16
329.80000,2.2661337e-16,1.4066941e-16
329.90000,2.2642156e-16,1.4066941e-16
330.00000,2.2581107e-16,1.4066941e-16
330.10000,2.2481299e-16,1.4066941e-16
330.20000,2.2338979e-16,1.4066941e-16
330.30000,2.2150209e-16,1.4066941e-16
330.40000,2.1919642e-16,1.4066941e-16
330.50000,2.1666562e-16,1.4066941e-16
330.60000,2.1424646e-16,1.4066941e-16
330.70000,2.1235181e-16,1.4066941e-16
330.80000,2.1136548e-16,1.4066941e-16
330.90000,2.1153836e-16,1.4066941e-16
331.00000,2.1291410e-16,1.4066941e-16
331.10000,2.1529487e-16,1.4066941e-16
331.20000,2.1825051e-16,1.4066941e-16
331.30000,2.2117659e-16,1.4066941e-16
331.40000,2.2340716e-16,1.4066941e-16
331.50000,2.2437117e-16,1.4066941e-16
331.60000,2.2375315e-16,1.4066941e-16
331.70000,2.2159826e-16,1.4066941e-16
331.80000,2.1831278e-16,1.4066941e-16
331.90000,2.1455462e-16,1.4066941e-16
332.00000,2.1106140e-16,1.4066941e-16
332.10000,2.0849263e-16,1.4066941e-16
332.20000,2.0734609e-16,1.4066941e-16
332.30000,2.0795811e-16,1.4066941e-16
332.40000,2.1054447e-16,1.4066941e-16
332.50000,2.1521860e-16,1.4066941e-16
332.60000,2.2194851e-16,1.4066941e-16
332.70000,2.3046698e-16,1.4066941e-16
332.80000,2.4019560e-16,1.4066941e-16
332.90000,2.5025241e-16,1.4066941e-16
333.00000,2.5957680e-16,1.4066941e-16
333.10000,2.6714544e-16,1.4066941e-16
333.20000,2.7220232e-16,1.4066941e-16
333.30000,2.7441396e-16,1.4066941e-16
333.40000,2.7389195e-16,1.4066941e-16
333.50000,2.7108235e-16,1.4066941e-16
333.60000,2.6657476e-16,1.4066941e-16
333.70000,2.6090984e-16,1.4066941e-16
333.80000,2.5445440e-16,1.4066941e-16
333.90000,2.4737714e-16,1.4066941e-16
334.00000,2.3971304e-16,1.4066941e-16
334.10000,2.3147066e-16,1.4066941e-16
334.20000,2.2272465e-16,1.4066941e-16
334.30000,2.1365030e-16,1.4066941e-16
334.40000,2.0448970e-16,1.4066941e-16
334.50000,1.9547582e-16,1.4066941e-16
334.60000,1.8676331e-16,1.4066941e-16
334.70000,1.7841110e-16,1.4066941e-16
334.80000,1.7043062e-16,1.4066941e-16
334.90000,1.6287089e-16,1.4066941e-16
335.00000,1.5588258e-16,1.4066941e-16
335.10000,1.4970686e-16,1.4066941e-16
335.20000,1.4457534e-16,1.4066941e-16
335.30000,1.4056326e-16,1.4066941e-16
335.40000,1.3747719e-16,1.4066941e-16
335.50000,1.3485447e-16,1.4066941e-16
335.60000,1.3210255e-16,1.4066941e-16
335.70000,1.2873663e-16,1.4066941e-16
335.80000,1.2461923e-16,1.4066941e-16
335.90000,1.2009367e-16,1.4066941e-16
336.00000,1.1594009e-16,1.4066941e-16
336.10000,1.1314995e-16,1.4066941e-16
336.20000,1.1258648e-16,1.4066941e-16
336.30000,1.1464682e-16,1.4066941e-16
336.40000,1.1904978e-16,1.4066941e-16
336.50000,1.2483766e-16,1.4066941e-16
336.60000,1.3060933e-16,1.4066941e-16
336.70000,1.3491846e-16,1.4066941e-16
336.80000,1.3670704e-16,1.4066941e-16
336.90000,1.3562612e-16,1.4066941e-16
337.00000,1.3213366e-16,1.4066941e-16
337.10000,1.2733977e-16,1.4066941e-16
337.20000,1.2265852e-16,1.4066941e-16
337.30000,1.1938976e-16,1.4066941e-16
337.40000,1.1837066e-16,1.4066941e-16
337.50000,1.1980331e-16,1.4066941e-16
337.60000,1.2329793e-16,1.4066941e-16
337.70000,1.2809629e-16,1.4066941e-16
337.80000,1.3338181e-16,1.4066941e-16
337.90000,1.3856055e-16,1.4066941e-16
338.00000,1.4341673e-16,1.4066941e-16
338.10000,1.4809960e-16,1.4066941e-16
338.20000,1.5296543e-16,1.4066941e-16
338.30000,1.5835241e-16,1.4066941e-16
338.40000,1.6438467e-16,1.4066941e-16
338.50000,1.7087869e-16,1.4066941e-16
338.60000,1.7737428e-16,1.4066941e-16
338.70000,1.8326054e-16,1.4066941e-16
338.80000,1.8794029e-16,1.4066941e-16
338.90000,1.9098286e-16,1.4066941e-16
339.00000,1.9223936e-16,1.4066941e-16
339.10000,1.9191382e-16,1.4066941e-16
339.20000,1.9058332e-16,1.4066941e-16
339.30000,1.8914784e-16,1.4066941e-16
339.40000,1.8868901e-16,1.4066941e-16
339.50000,1.9024166e-16,1.4066941e-16
339.60000,1.9452609e-16,1.4066941e-16
339.70000,2.0172523e-16,1.4066941e-16
339.80000,2.1139095e-16,1.4066941e-16
339.90000,2.2252137e-16,1.4066941e-16
340.00000,2.3378671e-16,1.4066941e-16
340.10000,2.4382800e-16,1.4066941e-16
340.20000,2.5153554e-16,1.4066941e-16
340.30000,2.5623348e-16,1.4066941e-16
340.40000,2.5773781e-16,1.4066941e-16
340.50000,2.5629461e-16,1.4066941e-16
340.60000,2.5243259e-16,1.4066941e-16
340.70000,2.4677700e-16,1.4066941e-16
340.80000,2.3987545e-16,1.4066941e-16
340.90000,2.3208292e-16,1.4066941e-16
341.00000,2.2354087e-16,1.4066941e-16
341.10000,2.1426007e-16,1.4066941e-16
341.20000,2.0428191e-16,1.4066941e-16
341.30000,1.9385799e-16,1.4066941e-16
341.40000,1.8356947e-16,1.4066941e-16
341.50000,1.7431868e-16,1.4066941e-16
341.60000,1.6716769e-16,1.4066941e-16
341.70000,1.6305922e-16,1.4066941e-16
341.80000,1.6251079e-16,1.4066941e-16
341.90000,1.6539842e-16,1.4066941e-16
342.00000,1.7092527e-16,1.4066941e-16
342.10000,1.7780837e-16,1.4066941e-16
342.20000,1.8463317e-16,1.4066941e-16
342.30000,1.9025625e-16,1.4066941e-16
342.40000,1.9411016e-16,1.4066941e-16
342.50000,1.9629661e-16,1.4066941e-16
342.60000,1.9743383e-16,1.4066941e-16
342.70000,1.9832007e-16,1.4066941e-16
342.80000,1.9954765e-16,1.4066941e-16
342.90000,2.0121973e-16,1.4066941e-16
343.00000,2.0287675e-16,1.4066941e-16
343.10000,2.0365163e-16,1.4066941e-16
343.20000,2.0257996e-16,1.4066941e-16
343.30000,1.9893325e-16,1.4066941e-16
343.40000,1.9244492e-16,1.4066941e-16
343.50000,1.8335515e-16,1.4066941e-16
343.60000,1.7228505e-16,1.4066941e-16
343.70000,1.6002118e-16,1.4066941e-16
343.80000,1.4731686e-16,1.4066941e-16
343.90000,1.3478887e-16,1.4066941e-16
344.00000,1.2292701e-16,1.4066941e-16
344.10000,1.1217456e-16,1.4066941e-16
344.20000,1.0300962e-16,1.4066941e-16
344.30000,9.5969804e-17,1.4066941e-16
344.40000,9.1600937e-17,1.4066941e-16
344.50000,9.0351025e-17,1.4066941e-16
344.60000,9.2452397e-17,1.4066941e-16
344.70000,9.7834348e-17,1.4066941e-16
344.80000,1.0609284e-16,1.4066941e-16
344.90000,1.1652483e-16,1.4066941e-16
345.00000,1.2821913e-16,1.4066941e-16
345.10000,1.4018427e-16,1.4066941e-16
345.20000,1.5148454e-16,1.4066941e-16
345.30000,1.6135191e-16,1.4066941e-16
345.40000,1.6924766e-16,1.4066941e-16
345.50000,1.7486557e-16,1.4066941e-16
345.60000,1.7809338e-16,1.4066941e-16
345.70000,1.7896526e-16,1.4066941e-16
345.80000,1.7763518e-16,1.4066941e-16
345.90000,1.7437876e-16,1.4066941e-16
346.00000,1.6960439e-16,1.4066941e-16
346.10000,1.6384236e-16,1.4066941e-16
346.20000,1.5769341e-16,1.4066941e-16
346.30000,1.5174624e-16,1.4066941e-16
346.40000,1.4649628e-16,1.4066941e-16
346.50000,1.4229824e-16,1.4066941e-16
346.60000,1.3936120e-16,1.4066941e-16
346.70000,1.3776571e-16,1.4066941e-16
346.80000,1.3747036e-16,1.4066941e-16
346.90000,1.3829183e-16,1.4066941e-16
347.00000,1.3987788e-16,1.4066941e-16
347.10000,1.4172135e-16,1.4066941e-16
347.20000,1.4325931e-16,1.4066941e-16
347.30000,1.4405992e-16,1.4066941e-16
347.40000,1.4403959e-16,1.4066941e-16
347.50000,1.4361068e-16,1.4066941e-16
347.60000,1.4366606e-16,1.4066941e-16
347.70000,1.4536583e-16,1.4066941e-16
347.80000,1.4977799e-16,1.4066941e-16
347.90000,1.5749714e-16,1.4066941e-16
348.00000,1.6838464e-16,1.4066941e-16
348.10000,1.8153114e-16,1.4066941e-16
348.20000,1.9545461e-16,1.4066941e-16
348.30000,2.0845685e-16,1.4066941e-16
348.40000,2.1900750e-16,1.4066941e-16
348.50000,2.2602976e-16,1.4066941e-16
348.60000,2.2901964e-16,1.4066941e-16
348.70000,2.2800835e-16,1.4066941e-16
348.80000,2.2343715e-16,1.4066941e-16
348.90000,2.1602741e-16,1.4066941e-16
349.00000,2.0669549e-16,1.4066941e-16
349.10000,1.9650812e-16,1.4066941e-16
349.20000,1.8663400e-16,1.4066941e-16
349.30000,1.7824715e-16,1.4066941e-16
349.40000,1.7237519e-16,1.4066941e-16
349.50000,1.6973478e-16,1.4066941e-16
349.60000,1.7062321e-16,1.4066941e-16
349.70000,1.7491926e-16,1.4066941e-16
349.80000,1.8219582e-16,1.4066941e-16
349.90000,1.9189057e-16,1.4066941e-16
350.00000,2.0345300e-16,1.4066941e-16
350.10000,2.1640139e-16,1.4066941e-16
350.20000,2.3027385e-16,1.4066941e-16
350.30000,2.4451388e-16,1.4066941e-16
350.40000,2.5836539e-16,1.4066941e-16
350.50000,2.7084890e-16,1.4066941e-16
350.60000,2.8085403e-16,1.4066941e-16
350.70000,2.8733175e-16,1.4066941e-16
350.80000,2.8952570e-16,1.4066941e-16
350.90000,2.8716477e-16,1.4066941e-16
351.00000,2.8055468e-16,1.4066941e-16
351.10000,2.7054584e-16,1.4066941e-16
351.20000,2.5839758e-16,1.4066941e-16
351.30000,2.4558336e-16,1.4066941e-16
351.40000,2.3357891e-16,1.4066941e-16
351.50000,2.2365605e-16,1.4066941e-16
351.60000,2.1669034e-16,1.4066941e-16
351.70000,2.1299705e-16,1.4066941e-16
351.80000,2.1223238e-16,1.4066941e-16
351.90000,2.1341399e-16,1.4066941e-16
352.00000,2.1510114e-16,1.4066941e-16
352.10000,2.1572582e-16,1.4066941e-16
352.20000,2.1400231e-16,1.4066941e-16
352.30000,2.0929883e-16,1.4066941e-16
352.40000,2.0185636e-16,1.4066941e-16
