wave,flux
338.000,4.64001e-16
340.000,4.54060e-16
342.000,4.44401e-16
344.000,4.35006e-16
346.000,4.25854e-16
348.000,4.16947e-16
350.000,4.08265e-16
352.000,3.99819e-16
354.000,3.91581e-16
356.000,3.78709e-16
358.000,3.68777e-16
360.000,3.66716e-16
362.000,3.58904e-16
364.000,3.53331e-16
366.000,3.47347e-16
368.000,3.43105e-16
370.000,3.33832e-16
372.000,3.27218e-16
374.000,3.23465e-16
376.000,3.15479e-16
378.000,3.08758e-16
380.000,3.01243e-16
382.000,2.97338e-16
384.000,2.91516e-16
386.000,2.86589e-16
388.000,2.78806e-16
390.000,2.75445e-16
392.000,2.73875e-16
394.000,2.66876e-16
396.000,2.54794e-16
398.000,2.51646e-16
400.000,2.54401e-16
402.000,2.52560e-16
404.000,2.51704e-16
406.000,2.42692e-16
408.000,2.28841e-16
410.000,2.14565e-16
412.000,2.17862e-16
414.000,2.24486e-16
416.000,2.25891e-16
418.000,2.23446e-16
420.000,2.20055e-16
422.000,2.16013e-16
424.000,2.13899e-16
426.000,2.08614e-16
428.000,2.02833e-16
430.000,1.93711e-16
432.000,1.79211e-16
434.000,1.66242e-16
436.000,1.73941e-16
438.000,1.80797e-16
440.000,1.81027e-16
442.000,1.82968e-16
444.000,1.79815e-16
446.000,1.69965e-16
448.000,1.66793e-16
450.000,1.69749e-16
452.000,1.68333e-16
454.000,1.67383e-16
456.000,1.64583e-16
458.000,1.62205e-16
460.000,1.59139e-16
462.000,1.54881e-16
464.000,1.51766e-16
466.000,1.49313e-16
468.000,1.37936e-16
470.000,1.39925e-16
472.000,1.41572e-16
474.000,1.38705e-16
476.000,1.37795e-16
478.000,1.34295e-16
480.000,1.29978e-16
482.000,1.25110e-16
484.000,1.17304e-16
486.000,1.06881e-16
488.000,1.11873e-16
490.000,1.17310e-16
492.000,1.19928e-16
494.000,1.18255e-16
496.000,1.15818e-16
498.000,1.14224e-16
500.000,1.13756e-16
502.000,1.12074e-16
504.000,1.12748e-16
506.000,1.12156e-16
508.000,1.09669e-16
510.000,1.06808e-16
512.000,1.05747e-16
514.000,1.04049e-16
516.000,1.03083e-16
518.000,1.01412e-16
520.000,1.00503e-16
522.000,9.78849e-17
524.000,9.64841e-17
526.000,9.54089e-17
528.000,9.31926e-17
530.000,9.15410e-17
532.000,9.04450e-17
534.000,8.98696e-17
536.000,8.88894e-17
538.000,8.68737e-17
540.000,8.48804e-17
542.000,8.38587e-17
544.000,8.43869e-17
546.000,8.24436e-17
548.000,8.19268e-17
550.000,8.04181e-17
552.000,7.88338e-17
554.000,7.89284e-17
556.000,7.88040e-17
558.000,7.67054e-17
560.000,7.51556e-17
562.000,7.48238e-17
564.000,7.40440e-17
566.000,7.17967e-17
568.000,7.06598e-17
570.000,6.98006e-17
572.000,6.91508e-17
574.000,6.83076e-17
576.000,6.69097e-17
578.000,6.60819e-17
580.000,6.55846e-17
582.000,6.44648e-17
584.000,6.27103e-17
586.000,6.23693e-17
588.000,5.96358e-17
590.000,6.05436e-17
592.000,5.97158e-17
594.000,6.02361e-17
596.000,5.93474e-17
598.000,5.80815e-17
600.000,5.75566e-17
602.000,5.78878e-17
604.000,5.68814e-17
606.000,5.50597e-17
608.000,5.59547e-17
610.000,5.52102e-17
612.000,5.37857e-17
614.000,5.29078e-17
616.000,5.19516e-17
618.000,5.06837e-17
620.000,4.97634e-17
622.000,4.95583e-17
624.000,4.93487e-17
626.000,4.87271e-17
628.000,4.80032e-17
630.000,4.80485e-17
632.000,4.66341e-17
634.000,4.67170e-17
636.000,4.55410e-17
638.000,4.53360e-17
640.000,4.47801e-17
642.000,4.41270e-17
644.000,4.36607e-17
646.000,4.30221e-17
648.000,4.25952e-17
650.000,4.15192e-17
652.000,4.05345e-17
654.000,3.79781e-17
656.000,3.54997e-17
658.000,3.73159e-17
660.000,3.83580e-17
662.000,3.84355e-17
664.000,3.83370e-17
666.000,3.79881e-17
668.000,3.69558e-17
670.000,3.74317e-17
672.000,3.71513e-17
674.000,3.67806e-17
676.000,3.62907e-17
678.000,3.61227e-17
680.000,3.57532e-17
682.000,3.53242e-17
684.000,3.48797e-17
686.000,3.50234e-17
688.000,3.37842e-17
690.000,3.35616e-17
692.000,3.36651e-17
694.000,3.34364e-17
696.000,3.26786e-17
698.000,3.24465e-17
700.000,3.21927e-17
702.000,3.18188e-17
704.000,3.13952e-17
706.000,3.03604e-17
708.000,3.00693e-17
710.000,2.96191e-17
712.000,2.95667e-17
714.000,2.90923e-17
716.000,2.91802e-17
718.000,2.87885e-17
720.000,2.87314e-17
722.000,2.82128e-17
724.000,2.81502e-17
726.000,2.76275e-17
728.000,2.71964e-17
730.000,2.71927e-17
732.000,2.69349e-17
734.000,2.66278e-17
736.000,2.62742e-17
738.000,2.58641e-17
740.000,2.57367e-17
742.000,2.57201e-17
744.000,2.50876e-17
746.000,2.47998e-17
748.000,2.48584e-17
750.000,2.43601e-17
752.000,2.39728e-17
754.000,2.36876e-17
756.000,2.35863e-17
758.000,2.31366e-17
760.000,2.31983e-17
762.000,2.29144e-17
764.000,2.23398e-17
766.000,2.24087e-17
768.000,2.21897e-17
770.000,2.26394e-17
772.000,2.14196e-17
774.000,2.18425e-17
776.000,2.14288e-17
778.000,2.08818e-17
780.000,2.08828e-17
782.000,2.05154e-17
784.000,2.03146e-17
786.000,1.98341e-17
788.000,2.01829e-17
790.000,1.98159e-17
792.000,1.97469e-17
794.000,2.03240e-17
796.000,1.91432e-17
798.000,1.92224e-17
800.000,1.90229e-17
802.000,1.88829e-17
804.000,1.84010e-17
806.000,1.85561e-17
808.000,1.82617e-17
810.000,1.81991e-17
812.000,1.83268e-17
814.000,1.75778e-17
816.000,1.77585e-17
818.000,1.75230e-17
820.000,1.73757e-17
822.000,1.72016e-17
824.000,1.71016e-17
826.000,1.68579e-17
828.000,1.70246e-17
830.000,1.64100e-17
832.000,1.67344e-17
834.000,1.59860e-17
836.000,1.59454e-17
838.000,1.60979e-17
840.000,1.57231e-17
842.000,1.55690e-17
844.000,1.54899e-17
846.000,1.52503e-17
848.000,1.49376e-17
850.000,1.49365e-17
852.000,1.48131e-17
854.000,1.45784e-17
856.000,1.45861e-17
858.000,1.42903e-17
860.000,1.42976e-17
862.000,1.44141e-17
864.000,1.41322e-17
866.000,1.40792e-17
868.000,1.44068e-17
870.000,1.38284e-17
872.000,1.33461e-17
874.000,1.33212e-17
876.000,1.26989e-17
878.000,1.20348e-17
880.000,1.24564e-17
882.000,1.14811e-17
884.000,1.00452e-17
886.000,1.17919e-17
888.000,1.23140e-17
890.000,1.19416e-17
892.000,1.19847e-17
894.000,1.24165e-17
896.000,1.22029e-17
898.000,1.13427e-17
900.000,1.07067e-17
902.000,1.20053e-17
904.000,1.29952e-17
906.000,1.24873e-17
908.000,1.25770e-17
910.000,1.15354e-17
912.000,1.14086e-17
914.000,1.13109e-17
916.000,1.12150e-17
918.000,1.11194e-17
920.000,1.10252e-17
922.000,1.09338e-17
924.000,1.08420e-17
926.000,1.07522e-17
928.000,1.06643e-17
930.000,1.05769e-17
932.000,1.04908e-17
934.000,1.04047e-17
936.000,1.03190e-17
938.000,1.02342e-17
940.000,1.01488e-17
942.000,1.00642e-17
944.000,9.97972e-18
946.000,9.89509e-18
948.000,9.81062e-18
950.000,9.72688e-18
952.000,9.64548e-18
954.000,9.56850e-18
956.000,9.49170e-18
958.000,9.41735e-18
960.000,9.34659e-18
962.000,9.27700e-18
964.000,9.20750e-18
966.000,9.13773e-18
968.000,9.06783e-18
970.000,8.99787e-18
972.000,8.92799e-18
974.000,8.85815e-18
976.000,8.78844e-18
978.000,8.71882e-18
980.000,8.64926e-18
982.000,8.57978e-18
984.000,8.51025e-18
986.000,8.44040e-18
988.000,8.37035e-18
990.000,8.29961e-18
992.000,8.22788e-18
994.000,8.15488e-18
996.000,8.08010e-18
998.000,8.00366e-18
1000.00,7.92489e-18
1002.00,7.84946e-18
1004.00,7.78638e-18
1006.00,7.72731e-18
1008.00,7.67311e-18
1010.00,7.62875e-18
1012.00,7.58628e-18
1014.00,7.54235e-18
1016.00,7.49623e-18
1018.00,7.44821e-18
1020.00,7.39837e-18
