wave,flux,fluxerr
300.00000,1.4452895e-16,1.1046026e-18
300.10000,1.4063049e-16,1.1046026e-18
300.20000,1.3684479e-16,1.1046026e-18
300.30000,1.3367741e-16,1.1046026e-18
300.40000,1.3154384e-16,1.1046026e-18
300.50000,1.3070097e-16,1.1046026e-18
300.60000,1.3121008e-16,1.1046026e-18
300.70000,1.3293321e-16,1.1046026e-18
300.80000,1.3555698e-16,1.1046026e-18
300.90000,1.3863616e-16,1.1046026e-18
301.00000,1.4165219e-16,1.1046026e-18
301.10000,1.4408443e-16,1.1046026e-18
301.20000,1.4549093e-16,1.1046026e-18
301.30000,1.4558923e-16,1.1046026e-18
301.40000,1.4432126e-16,1.1046026e-18
301.50000,1.4188253e-16,1.1046026e-18
301.60000,1.3869950e-16,1.1046026e-18
301.70000,1.3535077e-16,1.1046026e-18
301.80000,1.3244504e-16,1.1046026e-18
301.90000,1.3048588e-16,1.1046026e-18
302.00000,1.2976211e-16,1.1046026e-18
302.10000,1.3029759e-16,1.1046026e-18
302.20000,1.3187522e-16,1.1046026e-18
302.30000,1.3412402e-16,1.1046026e-18
302.40000,1.3663663e-16,1.1046026e-18
302.50000,1.3907757e-16,1.1046026e-18
302.60000,1.4125112e-16,1.1046026e-18
302.70000,1.4311659e-16,1.1046026e-18
302.80000,1.4475760e-16,1.1046026e-18
302.90000,1.4632355e-16,1.1046026e-18
303.00000,1.4796374e-16,1.1046026e-18
303.10000,1.4977156e-16,1.1046026e-18
303.20000,1.5175064e-16,1.1046026e-18
303.30000,1.5380964e-16,1.1046026e-18
303.40000,1.5578554e-16,1.1046026e-18
303.50000,1.5748809e-16,1.1046026e-18
303.60000,1.5875169e-16,1.1046026e-18
303.70000,1.5947801e-16,1.1046026e-18
303.80000,1.5965649e-16,1.1046026e-18
303.90000,1.5935780e-16,1.1046026e-18
304.00000,1.5870576e-16,1.1046026e-18
304.10000,1.5784105e-16,1.1046026e-18
304.20000,1.5689159e-16,1.1046026e-18
304.30000,1.5595973e-16,1.1046026e-18
304.40000,1.5512618e-16,1.1046026e-18
304.50000,1.5446112e-16,1.1046026e-18
304.60000,1.5402822e-16,1.1046026e-18
304.70000,1.5387174e-16,1.1046026e-18
304.80000,1.5398786e-16,1.1046026e-18
304.90000,1.5429413e-16,1.1046026e-18
305.00000,1.5461751e-16,1.1046026e-18
305.10000,1.5471740e-16,1.1046026e-18
305.20000,1.5434647e-16,1.1046026e-18
305.30000,1.5333350e-16,1.1046026e-18
305.40000,1.5165830e-16,1.1046026e-18
305.50000,1.4948581e-16,1.1046026e-18
305.60000,1.4713857e-16,1.1046026e-18
305.70000,1.4501061e-16,1.1046026e-18
305.80000,1.4345190e-16,1.1046026e-18
305.90000,1.4266754e-16,1.1046026e-18
306.00000,1.4267155e-16,1.1046026e-18
306.10000,1.4331101e-16,1.1046026e-18
306.20000,1.4434484e-16,1.1046026e-18
306.30000,1.4553849e-16,1.1046026e-18
306.40000,1.4673336e-16,1.1046026e-18
306.50000,1.4786795e-16,1.1046026e-18
306.60000,1.4895454e-16,1.1046026e-18
306.70000,1.5003486e-16,1.1046026e-18
306.80000,1.5114162e-16,1.1046026e-18
306.90000,1.5228069e-16,1.1046026e-18
307.00000,1.5343208e-16,1.1046026e-18
307.10000,1.5455790e-16,1.1046026e-18
307.20000,1.5560695e-16,1.1046026e-18
307.30000,1.5651528e-16,1.1046026e-18
307.40000,1.5720997e-16,1.1046026e-18
307.50000,1.5762410e-16,1.1046026e-18
307.60000,1.5772244e-16,1.1046026e-18
307.70000,1.5752662e-16,1.1046026e-18
307.80000,1.5712400e-16,1.1046026e-18
307.90000,1.5664854e-16,1.1046026e-18
308.00000,1.5623498e-16,1.1046026e-18
308.10000,1.5596158e-16,1.1046026e-18
308.20000,1.5580478e-16,1.1046026e-18
308.30000,1.5562748e-16,1.1046026e-18
308.40000,1.5521115e-16,1.1046026e-18
308.50000,1.5432493e-16,1.1046026e-18
308.60000,1.5280985e-16,1.1046026e-18
308.70000,1.5064809e-16,1.1046026e-18
308.80000,1.4799049e-16,1.1046026e-18
308.90000,1.4512938e-16,1.1046026e-18
309.00000,1.4242383e-16,1.1046026e-18
309.10000,1.4020341e-16,1.1046026e-18
309.20000,1.3868520e-16,1.1046026e-18
309.30000,1.3793364e-16,1.1046026e-18
309.40000,1.3787458e-16,1.1046026e-18
309.50000,1.3835128e-16,1.1046026e-18
309.60000,1.3919418e-16,1.1046026e-18
309.70000,1.4027430e-16,1.1046026e-18
309.80000,1.4152314e-16,1.1046026e-18
309.90000,1.4292147e-16,1.1046026e-18
310.00000,1.4447289e-16,1.1046026e-18
310.10000,1.4618025e-16,1.1046026e-18
310.20000,1.4803370e-16,1.1046026e-18
310.30000,1.5000799e-16,1.1046026e-18
310.40000,1.5206102e-16,1.1046026e-18
310.50000,1.5412901e-16,1.1046026e-18
310.60000,1.5612157e-16,1.1046026e-18
310.70000,1.5792492e-16,1.1046026e-18
310.80000,1.5941960e-16,1.1046026e-18
310.90000,1.6051024e-16,1.1046026e-18
311.00000,1.6115616e-16,1.1046026e-18
311.10000,1.6138821e-16,1.1046026e-18
311.20000,1.6130193e-16,1.1046026e-18
311.30000,1.6102794e-16,1.1046026e-18
311.40000,1.6069155e-16,1.1046026e-18
311.50000,1.6037905e-16,1.1046026e-18
311.60000,1.6012573e-16,1.1046026e-18
311.70000,1.5993001e-16,1.1046026e-18
311.80000,1.5978505e-16,1.1046026e-18
311.90000,1.5970983e-16,1.1046026e-18
312.00000,1.5976108e-16,1.1046026e-18
312.10000,1.6001692e-16,1.1046026e-18
312.20000,1.6053765e-16,1.1046026e-18
312.30000,1.6132187e-16,1.1046026e-18
312.40000,1.6228029e-16,1.1046026e-18
312.50000,1.6324245e-16,1.1046026e-18
312.60000,1.6399786e-16,1.1046026e-18
312.70000,1.6435851e-16,1.1046026e-18
312.80000,1.6422105e-16,1.1046026e-18
312.90000,1.6360676e-16,1.1046026e-18
313.00000,1.6266475e-16,1.1046026e-18
313.10000,1.6163589e-16,1.1046026e-18
313.20000,1.6078721e-16,1.1046026e-18
313.30000,1.6033627e-16,1.1046026e-18
313.40000,1.6038854e-16,1.1046026e-18
313.50000,1.6090722e-16,1.1046026e-18
313.60000,1.6172432e-16,1.1046026e-18
313.70000,1.6258902e-16,1.1046026e-18
313.80000,1.6323750e-16,1.1046026e-18
313.90000,1.6346376e-16,1.1046026e-18
314.00000,1.6317242e-16,1.1046026e-18
314.10000,1.6240196e-16,1.1046026e-18
314.20000,1.6131515e-16,1.1046026e-18
314.30000,1.6016133e-16,1.1046026e-18
314.40000,1.5922033e-16,1.1046026e-18
314.50000,1.5874092e-16,1.1046026e-18
314.60000,1.5888719e-16,1.1046026e-18
314.70000,1.5970436e-16,1.1046026e-18
314.80000,1.6111124e-16,1.1046026e-18
314.90000,1.6291986e-16,1.1046026e-18
315.00000,1.6487596e-16,1.1046026e-18
315.10000,1.6670864e-16,1.1046026e-18
315.20000,1.6817593e-16,1.1046026e-18
315.30000,1.6909610e-16,1.1046026e-18
315.40000,1.6936098e-16,1.1046026e-18
315.50000,1.6893538e-16,1.1046026e-18
315.60000,1.6785074e-16,1.1046026e-18
315.70000,1.6620060e-16,1.1046026e-18
315.80000,1.6414002e-16,1.1046026e-18
315.90000,1.6188346e-16,1.1046026e-18
316.00000,1.5969151e-16,1.1046026e-18
316.10000,1.5783946e-16,1.1046026e-18
316.20000,1.5656940e-16,1.1046026e-18
316.30000,1.5603905e-16,1.1046026e-18
316.40000,1.5628647e-16,1.1046026e-18
316.50000,1.5722626e-16,1.1046026e-18
316.60000,1.5868000e-16,1.1046026e-18
316.70000,1.6042887e-16,1.1046026e-18
316.80000,1.6226687e-16,1.1046026e-18
316.90000,1.6403540e-16,1.1046026e-18
317.00000,1.6563106e-16,1.1046026e-18
317.10000,1.6699220e-16,1.1046026e-18
317.20000,1.6807851e-16,1.1046026e-18
317.30000,1.6885787e-16,1.1046026e-18
317.40000,1.6930738e-16,1.1046026e-18
317.50000,1.6942564e-16,1.1046026e-18
317.60000,1.6924673e-16,1.1046026e-18
317.70000,1.6884518e-16,1.1046026e-18
317.80000,1.6832616e-16,1.1046026e-18
317.90000,1.6780256e-16,1.1046026e-18
318.00000,1.6736724e-16,1.1046026e-18
318.10000,1.6707079e-16,1.1046026e-18
318.20000,1.6691258e-16,1.1046026e-18
318.30000,1.6684668e-16,1.1046026e-18
318.40000,1.6679802e-16,1.1046026e-18
318.50000,1.6668049e-16,1.1046026e-18
318.60000,1.6640928e-16,1.1046026e-18
318.70000,1.6590491e-16,1.1046026e-18
318.80000,1.6509338e-16,1.1046026e-18
318.90000,1.6391146e-16,1.1046026e-18
319.00000,1.6232551e-16,1.1046026e-18
319.10000,1.6036377e-16,1.1046026e-18
319.20000,1.5815042e-16,1.1046026e-18
319.30000,1.5592027e-16,1.1046026e-18
319.40000,1.5399492e-16,1.1046026e-18
319.50000,1.5271530e-16,1.1046026e-18
319.60000,1.5234674e-16,1.1046026e-18
319.70000,1.5299010e-16,1.1046026e-18
319.80000,1.5453458e-16,1.1046026e-18
319.90000,1.5667314e-16,1.1046026e-18
320.00000,1.5897649e-16,1.1046026e-18
320.10000,1.6099912e-16,1.1046026e-18
320.20000,1.6238221e-16,1.1046026e-18
320.30000,1.6292382e-16,1.1046026e-18
320.40000,1.6260216e-16,1.1046026e-18
320.50000,1.6155394e-16,1.1046026e-18
320.60000,1.6002081e-16,1.1046026e-18
320.70000,1.5828164e-16,1.1046026e-18
320.80000,1.5658863e-16,1.1046026e-18
320.90000,1.5512137e-16,1.1046026e-18
321.00000,1.5396733e-16,1.1046026e-18
321.10000,1.5312934e-16,1.1046026e-18
321.20000,1.5255348e-16,1.1046026e-18
321.30000,1.5216587e-16,1.1046026e-18
321.40000,1.5190677e-16,1.1046026e-18
321.50000,1.5175284e-16,1.1046026e-18
321.60000,1.5172345e-16,1.1046026e-18
321.70000,1.5187106e-16,1.1046026e-18
321.80000,1.5225910e-16,1.1046026e-18
321.90000,1.5293342e-16,1.1046026e-18
322.00000,1.5389527e-16,1.1046026e-18
322.10000,1.5508473e-16,1.1046026e-18
322.20000,1.5638138e-16,1.1046026e-18
322.30000,1.5762371e-16,1.1046026e-18
322.40000,1.5864182e-16,1.1046026e-18
322.50000,1.5929151e-16,1.1046026e-18
322.60000,1.5947793e-16,1.1046026e-18
322.70000,1.5916274e-16,1.1046026e-18
322.80000,1.5835808e-16,1.1046026e-18
322.90000,1.5711735e-16,1.1046026e-18
323.00000,1.5553189e-16,1.1046026e-18
323.10000,1.5373449e-16,1.1046026e-18
323.20000,1.5190154e-16,1.1046026e-18
323.30000,1.5024261e-16,1.1046026e-18
323.40000,1.4897156e-16,1.1046026e-18
323.50000,1.4826483e-16,1.1046026e-18
323.60000,1.4822147e-16,1.1046026e-18
323.70000,1.4884095e-16,1.1046026e-18
323.80000,1.5002777e-16,1.1046026e-18
323.90000,1.5162044e-16,1.1046026e-18
324.00000,1.5343376e-16,1.1046026e-18
324.10000,1.5530068e-16,1.1046026e-18
324.20000,1.5710314e-16,1.1046026e-18
324.30000,1.5878722e-16,1.1046026e-18
324.40000,1.6036263e-16,1.1046026e-18
324.50000,1.6188854e-16,1.1046026e-18
324.60000,1.6344828e-16,1.1046026e-18
324.70000,1.6511676e-16,1.1046026e-18
324.80000,1.6692710e-16,1.1046026e-18
324.90000,1.6884593e-16,1.1046026e-18
325.00000,1.7076609e-16,1.1046026e-18
325.10000,1.7252158e-16,1.1046026e-18
325.20000,1.7392135e-16,1.1046026e-18
325.30000,1.7479281e-16,1.1046026e-18
325.40000,1.7502275e-16,1.1046026e-18
325.50000,1.7458547e-16,1.1046026e-18
325.60000,1.7355229e-16,1.1046026e-18
325.70000,1.7208141e-16,1.1046026e-18
325.80000,1.7039112e-16,1.1046026e-18
325.90000,1.6872222e-16,1.1046026e-18
326.00000,1.6729758e-16,1.1046026e-18
326.10000,1.6628661e-16,1.1046026e-18
326.20000,1.6578114e-16,1.1046026e-18
326.30000,1.6578584e-16,1.1046026e-18
326.40000,1.6622397e-16,1.1046026e-18
326.50000,1.6695752e-16,1.1046026e-18
326.60000,1.6781988e-16,1.1046026e-18
326.70000,1.6865671e-16,1.1046026e-18
326.80000,1.6936661e-16,1.1046026e-18
326.90000,1.6992919e-16,1.1046026e-18
327.00000,1.7040862e-16,1.1046026e-18
327.10000,1.7092779e-16,1.1046026e-18
327.20000,1.7162013e-16,1.1046026e-18
327.30000,1.7257701e-16,1.1046026e-18
327.40000,1.7381156e-16,1.1046026e-18
327.50000,1.7525284e-16,1.1046026e-18
327.60000,1.7677015e-16,1.1046026e-18
327.70000,1.7821498e-16,1.1046026e-18
327.80000,1.7946212e-16,1.1046026e-18
327.90000,1.8043553e-16,1.1046026e-18
328.00000,1.8111318e-16,1.1046026e-18
328.10000,1.8151494e-16,1.1046026e-18
328.20000,1.8168256e-16,1.1046026e-18
328.30000,1.8166129e-16,1.1046026e-18
328.40000,1.8148928e-16,1.1046026e-18
328.50000,1.8119622e-16,1.1046026e-18
328.60000,1.8080889e-16,1.1046026e-18
328.70000,1.8035874e-16,1.1046026e-18
328.80000,1.7988672e-16,1.1046026e-18
328.90000,1.7944178e-16,1.1046026e-18
329.00000,1.7907291e-16,1.1046026e-18
329.10000,1.7881759e-16,1.1046026e-18
329.20000,1.7869192e-16,1.1046026e-18
329.30000,1.7868712e-16,1.1046026e-18
329.40000,1.7877459e-16,1.1046026e-18
329.50000,1.7891722e-16,1.1046026e-18
329.60000,1.7908155e-16,1.1046026e-18
329.70000,1.7924498e-16,1.1046026e-18
329.80000,1.7939560e-16,1.1046026e-18
329.90000,1.7952639e-16,1.1046026e-18
330.00000,1.7962908e-16,1.1046026e-18
330.10000,1.7969266e-16,1.1046026e-18
330.20000,1.7970807e-16,1.1046026e-18
330.30000,1.7967616e-16,1.1046026e-18
330.40000,1.7961342e-16,1.1046026e-18
330.50000,1.7955025e-16,1.1046026e-18
330.60000,1.7952053e-16,1.1046026e-18
330.70000,1.7954530e-16,1.1046026e-18
330.80000,1.7961703e-16,1.1046026e-18
330.90000,1.7969133e-16,1.1046026e-18
331.00000,1.7969121e-16,1.1046026e-18
331.10000,1.7952441e-16,1.1046026e-18
331.20000,1.7910988e-16,1.1046026e-18
331.30000,1.7840522e-16,1.1046026e-18
331.40000,1.7742547e-16,1.1046026e-18
331.50000,1.7624574e-16,1.1046026e-18
331.60000,1.7498566e-16,1.1046026e-18
331.70000,1.7378122e-16,1.1046026e-18
331.80000,1.7275538e-16,1.1046026e-18
331.90000,1.7199888e-16,1.1046026e-18
332.00000,1.7156732e-16,1.1046026e-18
332.10000,1.7149064e-16,1.1046026e-18
332.20000,1.7178476e-16,1.1046026e-18
332.30000,1.7245473e-16,1.1046026e-18
332.40000,1.7348634e-16,1.1046026e-18
332.50000,1.7483227e-16,1.1046026e-18
332.60000,1.7640399e-16,1.1046026e-18
332.70000,1.7807774e-16,1.1046026e-18
332.80000,1.7971477e-16,1.1046026e-18
332.90000,1.8118781e-16,1.1046026e-18
333.00000,1.8240314e-16,1.1046026e-18
333.10000,1.8331065e-16,1.1046026e-18
333.20000,1.8390148e-16,1.1046026e-18
333.30000,1.8419760e-16,1.1046026e-18
333.40000,1.8423970e-16,1.1046026e-18
333.50000,1.8407732e-16,1.1046026e-18
333.60000,1.8376173e-16,1.1046026e-18
333.70000,1.8333973e-16,1.1046026e-18
333.80000,1.8284622e-16,1.1046026e-18
333.90000,1.8229596e-16,1.1046026e-18
334.00000,1.8167684e-16,1.1046026e-18
334.10000,1.8094952e-16,1.1046026e-18
334.20000,1.8005739e-16,1.1046026e-18
334.30000,1.7894797e-16,1.1046026e-18
334.40000,1.7760189e-16,1.1046026e-18
334.50000,1.7606012e-16,1.1046026e-18
334.60000,1.7443745e-16,1.1046026e-18
334.70000,1.7291209e-16,1.1046026e-18
334.80000,1.7168851e-16,1.1046026e-18
334.90000,1.7094171e-16,1.1046026e-18
335.00000,1.7076047e-16,1.1046026e-18
335.10000,1.7111018e-16,1.1046026e-18
335.20000,1.7183088e-16,1.1046026e-18
335.30000,1.7267397e-16,1.1046026e-18
335.40000,1.7336746e-16,1.1046026e-18
335.50000,1.7368973e-16,1.1046026e-18
335.60000,1.7352861e-16,1.1046026e-18
335.70000,1.7290669e-16,1.1046026e-18
335.80000,1.7196425e-16,1.1046026e-18
335.90000,1.7090431e-16,1.1046026e-18
336.00000,1.6991858e-16,1.1046026e-18
336.10000,1.6912157e-16,1.1046026e-18
336.20000,1.6851972e-16,1.1046026e-18
336.30000,1.6803016e-16,1.1046026e-18
336.40000,1.6754219e-16,1.1046026e-18
336.50000,1.6699437e-16,1.1046026e-18
336.60000,1.6643005e-16,1.1046026e-18
336.70000,1.6600235e-16,1.1046026e-18
336.80000,1.6592271e-16,1.1046026e-18
336.90000,1.6637363e-16,1.1046026e-18
337.00000,1.6742410e-16,1.1046026e-18
337.10000,1.6898456e-16,1.1046026e-18
337.20000,1.7082094e-16,1.1046026e-18
337.30000,1.7262184e-16,1.1046026e-18
337.40000,1.7409272e-16,1.1046026e-18
337.50000,1.7504290e-16,1.1046026e-18
337.60000,1.7543691e-16,1.1046026e-18
337.70000,1.7539562e-16,1.1046026e-18
337.80000,1.7514945e-16,1.1046026e-18
337.90000,1.7496010e-16,1.1046026e-18
338.00000,1.7503557e-16,1.1046026e-18
338.10000,1.7546454e-16,1.1046026e-18
338.20000,1.7618897e-16,1.1046026e-18
338.30000,1.7702215e-16,1.1046026e-18
338.40000,1.7770532e-16,1.1046026e-18
338.50000,1.7798557e-16,1.1046026e-18
338.60000,1.7769307e-16,1.1046026e-18
338.70000,1.7679670e-16,1.1046026e-18
338.80000,1.7542341e-16,1.1046026e-18
338.90000,1.7383451e-16,1.1046026e-18
339.00000,1.7236323e-16,1.1046026e-18
339.10000,1.7132869e-16,1.1046026e-18
339.20000,1.7095046e-16,1.1046026e-18
339.30000,1.7129054e-16,1.1046026e-18
339.40000,1.7224236e-16,1.1046026e-18
339.50000,1.7357136e-16,1.1046026e-18
339.60000,1.7499270e-16,1.1046026e-18
339.70000,1.7625894e-16,1.1046026e-18
339.80000,1.7722688e-16,1.1046026e-18
339.90000,1.7788281e-16,1.1046026e-18
340.00000,1.7832146e-16,1.1046026e-18
340.10000,1.7869196e-16,1.1046026e-18
340.20000,1.7913435e-16,1.1046026e-18
340.30000,1.7973028e-16,1.1046026e-18
340.40000,1.8048213e-16,1.1046026e-18
340.50000,1.8132106e-16,1.1046026e-18
340.60000,1.8213315e-16,1.1046026e-18
340.70000,1.8278932e-16,1.1046026e-18
340.80000,1.8316896e-16,1.1046026e-18
340.90000,1.8317491e-16,1.1046026e-18
341.00000,1.8274402e-16,1.1046026e-18
341.10000,1.8185816e-16,1.1046026e-18
341.20000,1.8055605e-16,1.1046026e-18
341.30000,1.7894071e-16,1.1046026e-18
341.40000,1.7717406e-16,1.1046026e-18
341.50000,1.7545334e-16,1.1046026e-18
341.60000,1.7397171e-16,1.1046026e-18
341.70000,1.7287441e-16,1.1046026e-18
341.80000,1.7222652e-16,1.1046026e-18
341.90000,1.7200528e-16,1.1046026e-18
342.00000,1.7212048e-16,1.1046026e-18
342.10000,1.7245318e-16,1.1046026e-18
342.20000,1.7289532e-16,1.1046026e-18
342.30000,1.7337269e-16,1.1046026e-18
342.40000,1.7384377e-16,1.1046026e-18
342.50000,1.7428074e-16,1.1046026e-18
342.60000,1.7464838e-16,1.1046026e-18
342.70000,1.7489715e-16,1.1046026e-18
342.80000,1.7497609e-16,1.1046026e-18
342.90000,1.7485766e-16,1.1046026e-18
343.00000,1.7455675e-16,1.1046026e-18
343.10000,1.7412799e-16,1.1046026e-18
343.20000,1.7363776e-16,1.1046026e-18
343.30000,1.7312420e-16,1.1046026e-18
343.40000,1.7256921e-16,1.1046026e-18
343.50000,1.7190369e-16,1.1046026e-18
343.60000,1.7105125e-16,1.1046026e-18
343.70000,1.6999325e-16,1.1046026e-18
343.80000,1.6882278e-16,1.1046026e-18
343.90000,1.6775540e-16,1.1046026e-18
344.00000,1.6708241e-16,1.1046026e-18
344.10000,1.6707964e-16,1.1046026e-18
344.20000,1.6790661e-16,1.1046026e-18
344.30000,1.6953705e-16,1.1046026e-18
344.40000,1.7174865e-16,1.1046026e-18
344.50000,1.7417546e-16,1.1046026e-18
344.60000,1.7640262e-16,1.1046026e-18
344.70000,1.7807083e-16,1.1046026e-18
344.80000,1.7895889e-16,1.1046026e-18
344.90000,1.7902380e-16,1.1046026e-18
345.00000,1.7839177e-16,1.1046026e-18
345.10000,1.7730668e-16,1.1046026e-18
345.20000,1.7605279e-16,1.1046026e-18
345.30000,1.7487518e-16,1.1046026e-18
345.40000,1.7392229e-16,1.1046026e-18
345.50000,1.7322801e-16,1.1046026e-18
345.60000,1.7273540e-16,1.1046026e-18
345.70000,1.7234774e-16,1.1046026e-18
345.80000,1.7198128e-16,1.1046026e-18
345.90000,1.7159631e-16,1.1046026e-18
346.00000,1.7119658e-16,1.1046026e-18
346.10000,1.7080516e-16,1.1046026e-18
346.20000,1.7043611e-16,1.1046026e-18
346.30000,1.7008047e-16,1.1046026e-18
346.40000,1.6971327e-16,1.1046026e-18
346.50000,1.6931421e-16,1.1046026e-18
346.60000,1.6888779e-16,1.1046026e-18
346.70000,1.6847130e-16,1.1046026e-18
346.80000,1.6812933e-16,1.1046026e-18
346.90000,1.6794148e-16,1.1046026e-18
347.00000,1.6799098e-16,1.1046026e-18
347.10000,1.6835705e-16,1.1046026e-18
347.20000,1.6910682e-16,1.1046026e-18
347.30000,1.7028202e-16,1.1046026e-18
347.40000,1.7188028e-16,1.1046026e-18
347.50000,1.7383851e-16,1.1046026e-18
347.60000,1.7602889e-16,1.1046026e-18
347.70000,1.7827448e-16,1.1046026e-18
347.80000,1.8038229e-16,1.1046026e-18
347.90000,1.8218265e-16,1.1046026e-18
348.00000,1.8356080e-16,1.1046026e-18
348.10000,1.8446990e-16,1.1046026e-18
348.20000,1.8492393e-16,1.1046026e-18
348.30000,1.8497708e-16,1.1046026e-18
348.40000,1.8470063e-16,1.1046026e-18
348.50000,1.8416701e-16,1.1046026e-18
348.60000,1.8344481e-16,1.1046026e-18
348.70000,1.8260249e-16,1.1046026e-18
348.80000,1.8171469e-16,1.1046026e-18
348.90000,1.8086508e-16,1.1046026e-18
349.00000,1.8014270e-16,1.1046026e-18
349.10000,1.7963229e-16,1.1046026e-18
349.20000,1.7940203e-16,1.1046026e-18
349.30000,1.7949270e-16,1.1046026e-18
349.40000,1.7991103e-16,1.1046026e-18
349.50000,1.8062780e-16,1.1046026e-18
349.60000,1.8157969e-16,1.1046026e-18
349.70000,1.8267320e-16,1.1046026e-18
349.80000,1.8379077e-16,1.1046026e-18
349.90000,1.8480050e-16,1.1046026e-18
350.00000,1.8557130e-16,1.1046026e-18
350.10000,1.8599306e-16,1.1046026e-18
350.20000,1.8599769e-16,1.1046026e-18
350.30000,1.8557385e-16,1.1046026e-18
350.40000,1.8476830e-16,1.1046026e-18
350.50000,1.8367161e-16,1.1046026e-18
350.60000,1.8239276e-16,1.1046026e-18
350.70000,1.8103373e-16,1.1046026e-18
350.80000,1.7967609e-16,1.1046026e-18
350.90000,1.7838579e-16,1.1046026e-18
351.00000,1.7723167e-16,1.1046026e-18
351.10000,1.7630334e-16,1.1046026e-18
351.20000,1.7571193e-16,1.1046026e-18
351.30000,1.7556507e-16,1.1046026e-18
351.40000,1.7592250e-16,1.1046026e-18
351.50000,1.7675160e-16,1.1046026e-18
351.60000,1.7790598e-16,1.1046026e-18
351.70000,1.7914171e-16,1.1046026e-18
351.80000,1.8016943e-16,1.1046026e-18
351.90000,1.8072620e-16,1.1046026e-18
352.00000,1.8064334e-16,1.1046026e-18
352.10000,1.7988938e-16,1.1046026e-18
352.20000,1.7857644e-16,1.1046026e-18
352.30000,1.7692964e-16,1.1046026e-18
352.40000,1.7522964e-16,1.1046026e-18
