wave,flux,fluxerr
300.00000,1.8639847e-17,4.6601791e-18
300.10000,1.8115301e-17,4.6601791e-18
300.20000,1.7335492e-17,4.6601791e-18
300.30000,1.6380659e-17,4.6601791e-18
300.40000,1.5383271e-17,4.6601791e-18
300.50000,1.4491415e-17,4.6601791e-18
300.60000,1.3829408e-17,4.6601791e-18
300.70000,1.3472424e-17,4.6601791e-18
300.80000,1.3442641e-17,4.6601791e-18
300.90000,1.3722374e-17,4.6601791e-18
301.00000,1.4271872e-17,4.6601791e-18
301.10000,1.5039908e-17,4.6601791e-18
301.20000,1.5962526e-17,4.6601791e-18
301.30000,1.6954332e-17,4.6601791e-18
301.40000,1.7902224e-17,4.6601791e-18
301.50000,1.8670758e-17,4.6601791e-18
301.60000,1.9122684e-17,4.6601791e-18
301.70000,1.9150699e-17,4.6601791e-18
301.80000,1.8710681e-17,4.6601791e-18
301.90000,1.7844604e-17,4.6601791e-18
302.00000,1.6683706e-17,4.6601791e-18
302.10000,1.5428490e-17,4.6601791e-18
302.20000,1.4309963e-17,4.6601791e-18
302.30000,1.3543276e-17,4.6601791e-18
302.40000,1.3287769e-17,4.6601791e-18
302.50000,1.3624896e-17,4.6601791e-18
302.60000,1.4558383e-17,4.6601791e-18
302.70000,1.6032425e-17,4.6601791e-18
302.80000,1.7957553e-17,4.6601791e-18
302.90000,2.0232511e-17,4.6601791e-18
303.00000,2.2754198e-17,4.6601791e-18
303.10000,2.5414495e-17,4.6601791e-18
303.20000,2.8089475e-17,4.6601791e-18
303.30000,3.0630700e-17,4.6601791e-18
303.40000,3.2868188e-17,4.6601791e-18
303.50000,3.4630168e-17,4.6601791e-18
303.60000,3.5777003e-17,4.6601791e-18
303.70000,3.6238678e-17,4.6601791e-18
303.80000,3.6040782e-17,4.6601791e-18
303.90000,3.5306087e-17,4.6601791e-18
304.00000,3.4227708e-17,4.6601791e-18
304.10000,3.3021792e-17,4.6601791e-18
304.20000,3.1876788e-17,4.6601791e-18
304.30000,3.0917917e-17,4.6601791e-18
304.40000,3.0198515e-17,4.6601791e-18
304.50000,2.9718170e-17,4.6601791e-18
304.60000,2.9456500e-17,4.6601791e-18
304.70000,2.9405805e-17,4.6601791e-18
304.80000,2.9587442e-17,4.6601791e-18
304.90000,3.0044236e-17,4.6601791e-18
305.00000,3.0811597e-17,4.6601791e-18
305.10000,3.1879310e-17,4.6601791e-18
305.20000,3.3161155e-17,4.6601791e-18
305.30000,3.4488348e-17,4.6601791e-18
305.40000,3.5635429e-17,4.6601791e-18
305.50000,3.6375755e-17,4.6601791e-18
305.60000,3.6551978e-17,4.6601791e-18
305.70000,3.6138942e-17,4.6601791e-18
305.80000,3.5275487e-17,4.6601791e-18
305.90000,3.4249010e-17,4.6601791e-18
306.00000,3.3431071e-17,4.6601791e-18
306.10000,3.3180073e-17,4.6601791e-18
306.20000,3.3741779e-17,4.6601791e-18
306.30000,3.5183309e-17,4.6601791e-18
306.40000,3.7386676e-17,4.6601791e-18
306.50000,4.0105350e-17,4.6601791e-18
306.60000,4.3060313e-17,4.6601791e-18
306.70000,4.6033845e-17,4.6601791e-18
306.80000,4.8920229e-17,4.6601791e-18
306.90000,5.1714152e-17,4.6601791e-18
307.00000,5.4449077e-17,4.6601791e-18
307.10000,5.7122448e-17,4.6601791e-18
307.20000,5.9648692e-17,4.6601791e-18
307.30000,6.1863233e-17,4.6601791e-18
307.40000,6.3572494e-17,4.6601791e-18
307.50000,6.4622694e-17,4.6601791e-18
307.60000,6.4955507e-17,4.6601791e-18
307.70000,6.4630703e-17,4.6601791e-18
307.80000,6.3814682e-17,4.6601791e-18
307.90000,6.2747066e-17,4.6601791e-18
308.00000,6.1699356e-17,4.6601791e-18
308.10000,6.0932886e-17,4.6601791e-18
308.20000,6.0656054e-17,4.6601791e-18
308.30000,6.0980209e-17,4.6601791e-18
308.40000,6.1880352e-17,4.6601791e-18
308.50000,6.3175364e-17,4.6601791e-18
308.60000,6.4544518e-17,4.6601791e-18
308.70000,6.5587798e-17,4.6601791e-18
308.80000,6.5919566e-17,4.6601791e-18
308.90000,6.5267522e-17,4.6601791e-18
309.00000,6.3542119e-17,4.6601791e-18
309.10000,6.0850939e-17,4.6601791e-18
309.20000,5.7454273e-17,4.6601791e-18
309.30000,5.3681795e-17,4.6601791e-18
309.40000,4.9844336e-17,4.6601791e-18
309.50000,4.6173454e-17,4.6601791e-18
309.60000,4.2806592e-17,4.6601791e-18
309.70000,3.9815234e-17,4.6601791e-18
309.80000,3.7256517e-17,4.6601791e-18
309.90000,3.5221709e-17,4.6601791e-18
310.00000,3.3859169e-17,4.6601791e-18
310.10000,3.3361874e-17,4.6601791e-18
310.20000,3.3924561e-17,4.6601791e-18
310.30000,3.5687024e-17,4.6601791e-18
310.40000,3.8683971e-17,4.6601791e-18
310.50000,4.2817838e-17,4.6601791e-18
310.60000,4.7861695e-17,4.6601791e-18
310.70000,5.3489512e-17,4.6601791e-18
310.80000,5.9324138e-17,4.6601791e-18
310.90000,6.4990550e-17,4.6601791e-18
311.00000,7.0162405e-17,4.6601791e-18
311.10000,7.4592239e-17,4.6601791e-18
311.20000,7.8119473e-17,4.6601791e-18
311.30000,8.0656005e-17,4.6601791e-18
311.40000,8.2156458e-17,4.6601791e-18
311.50000,8.2586725e-17,4.6601791e-18
311.60000,8.1907176e-17,4.6601791e-18
311.70000,8.0082944e-17,4.6601791e-18
311.80000,7.7123588e-17,4.6601791e-18
311.90000,7.3141273e-17,4.6601791e-18
312.00000,6.8405628e-17,4.6601791e-18
312.10000,6.3369352e-17,4.6601791e-18
312.20000,5.8643926e-17,4.6601791e-18
312.30000,5.4918569e-17,4.6601791e-18
312.40000,5.2833709e-17,4.6601791e-18
312.50000,5.2836902e-17,4.6601791e-18
312.60000,5.5058828e-17,4.6601791e-18
312.70000,5.9246435e-17,4.6601791e-18
312.80000,6.4779106e-17,4.6601791e-18
312.90000,7.0773786e-17,4.6601791e-18
313.00000,7.6260788e-17,4.6601791e-18
313.10000,8.0389484e-17,4.6601791e-18
313.20000,8.2609906e-17,4.6601791e-18
313.30000,8.2778925e-17,4.6601791e-18
313.40000,8.1160105e-17,4.6601791e-18
313.50000,7.8319435e-17,4.6601791e-18
313.60000,7.4952869e-17,4.6601791e-18
313.70000,7.1702282e-17,4.6601791e-18
313.80000,6.9015398e-17,4.6601791e-18
313.90000,6.7084071e-17,4.6601791e-18
314.00000,6.5864864e-17,4.6601791e-18
314.10000,6.5160225e-17,4.6601791e-18
314.20000,6.4726686e-17,4.6601791e-18
314.30000,6.4378215e-17,4.6601791e-18
314.40000,6.4061425e-17,4.6601791e-18
314.50000,6.3887533e-17,4.6601791e-18
314.60000,6.4112174e-17,4.6601791e-18
314.70000,6.5061959e-17,4.6601791e-18
314.80000,6.7019767e-17,4.6601791e-18
314.90000,7.0097757e-17,4.6601791e-18
315.00000,7.4140085e-17,4.6601791e-18
315.10000,7.8696475e-17,4.6601791e-18
315.20000,8.3088621e-17,4.6601791e-18
315.30000,8.6558793e-17,4.6601791e-18
315.40000,8.8457441e-17,4.6601791e-18
315.50000,8.8408979e-17,4.6601791e-18
315.60000,8.6401316e-17,4.6601791e-18
315.70000,8.2772589e-17,4.6601791e-18
315.80000,7.8105697e-17,4.6601791e-18
315.90000,7.3071461e-17,4.6601791e-18
316.00000,6.8273222e-17,4.6601791e-18
316.10000,6.4137494e-17,4.6601791e-18
316.20000,6.0873685e-17,4.6601791e-18
316.30000,5.8501482e-17,4.6601791e-18
316.40000,5.6925517e-17,4.6601791e-18
316.50000,5.6026986e-17,4.6601791e-18
316.60000,5.5741014e-17,4.6601791e-18
316.70000,5.6095209e-17,4.6601791e-18
316.80000,5.7197515e-17,4.6601791e-18
316.90000,5.9177795e-17,4.6601791e-18
317.00000,6.2103611e-17,4.6601791e-18
317.10000,6.5900959e-17,4.6601791e-18
317.20000,7.0310795e-17,4.6601791e-18
317.30000,7.4900863e-17,4.6601791e-18
317.40000,7.9133264e-17,4.6601791e-18
317.50000,8.2468746e-17,4.6601791e-18
317.60000,8.4476357e-17,4.6601791e-18
317.70000,8.4916340e-17,4.6601791e-18
317.80000,8.3774362e-17,4.6601791e-18
317.90000,8.1241921e-17,4.6601791e-18
318.00000,7.7654853e-17,4.6601791e-18
318.10000,7.3413580e-17,4.6601791e-18
318.20000,6.8911165e-17,4.6601791e-18
318.30000,6.4487504e-17,4.6601791e-18
318.40000,6.0413396e-17,4.6601791e-18
318.50000,5.6893765e-17,4.6601791e-18
318.60000,5.4072707e-17,4.6601791e-18
318.70000,5.2027780e-17,4.6601791e-18
318.80000,5.0753866e-17,4.6601791e-18
318.90000,5.0149423e-17,4.6601791e-18
319.00000,5.0022308e-17,4.6601791e-18
319.10000,5.0125718e-17,4.6601791e-18
319.20000,5.0221213e-17,4.6601791e-18
319.30000,5.0152281e-17,4.6601791e-18
319.40000,4.9904529e-17,4.6601791e-18
319.50000,4.9630241e-17,4.6601791e-18
319.60000,4.9624831e-17,4.6601791e-18
319.70000,5.0257619e-17,4.6601791e-18
319.80000,5.1874511e-17,4.6601791e-18
319.90000,5.4700149e-17,4.6601791e-18
320.00000,5.8767724e-17,4.6601791e-18
320.10000,6.3895055e-17,4.6601791e-18
320.20000,6.9709930e-17,4.6601791e-18
320.30000,7.5712961e-17,4.6601791e-18
320.40000,8.1358789e-17,4.6601791e-18
320.50000,8.6137434e-17,4.6601791e-18
320.60000,8.9643560e-17,4.6601791e-18
320.70000,9.1626706e-17,4.6601791e-18
320.80000,9.2017976e-17,4.6601791e-18
320.90000,9.0929830e-17,4.6601791e-18
321.00000,8.8629004e-17,4.6601791e-18
321.10000,8.5488843e-17,4.6601791e-18
321.20000,8.1932889e-17,4.6601791e-18
321.30000,7.8382011e-17,4.6601791e-18
321.40000,7.5211431e-17,4.6601791e-18
321.50000,7.2716071e-17,4.6601791e-18
321.60000,7.1079173e-17,4.6601791e-18
321.70000,7.0343442e-17,4.6601791e-18
321.80000,7.0392814e-17,4.6601791e-18
321.90000,7.0958749e-17,4.6601791e-18
322.00000,7.1661223e-17,4.6601791e-18
322.10000,7.2081653e-17,4.6601791e-18
322.20000,7.1849765e-17,4.6601791e-18
322.30000,7.0718601e-17,4.6601791e-18
322.40000,6.8606515e-17,4.6601791e-18
322.50000,6.5599368e-17,4.6601791e-18
322.60000,6.1921263e-17,4.6601791e-18
322.70000,5.7889463e-17,4.6601791e-18
322.80000,5.3866354e-17,4.6601791e-18
322.90000,5.0213348e-17,4.6601791e-18
323.00000,4.7246418e-17,4.6601791e-18
323.10000,4.5194575e-17,4.6601791e-18
323.20000,4.4168633e-17,4.6601791e-18
323.30000,4.4151067e-17,4.6601791e-18
323.40000,4.5013516e-17,4.6601791e-18
323.50000,4.6557473e-17,4.6601791e-18
323.60000,4.8562862e-17,4.6601791e-18
323.70000,5.0826499e-17,4.6601791e-18
323.80000,5.3180236e-17,4.6601791e-18
323.90000,5.5492053e-17,4.6601791e-18
324.00000,5.7663059e-17,4.6601791e-18
324.10000,5.9632638e-17,4.6601791e-18
324.20000,6.1393744e-17,4.6601791e-18
324.30000,6.3008525e-17,4.6601791e-18
324.40000,6.4609904e-17,4.6601791e-18
324.50000,6.6380722e-17,4.6601791e-18
324.60000,6.8514098e-17,4.6601791e-18
324.70000,7.1168542e-17,4.6601791e-18
324.80000,7.4433158e-17,4.6601791e-18
324.90000,7.8312537e-17,4.6601791e-18
325.00000,8.2732360e-17,4.6601791e-18
325.10000,8.7560379e-17,4.6601791e-18
325.20000,9.2634475e-17,4.6601791e-18
325.30000,9.7788471e-17,4.6601791e-18
325.40000,1.0286641e-16,4.6601791e-18
325.50000,1.0771874e-16,4.6601791e-18
325.60000,1.1218159e-16,4.6601791e-18
325.70000,1.1605225e-16,4.6601791e-18
325.80000,1.1908227e-16,4.6601791e-18
325.90000,1.2100769e-16,4.6601791e-18
326.00000,1.2161880e-16,4.6601791e-18
326.10000,1.2084864e-16,4.6601791e-18
326.20000,1.1884342e-16,4.6601791e-18
326.30000,1.1597360e-16,4.6601791e-18
326.40000,1.1277293e-16,4.6601791e-18
326.50000,1.0981688e-16,4.6601791e-18
326.60000,1.0757966e-16,4.6601791e-18
326.70000,1.0631886e-16,4.6601791e-18
326.80000,1.0602749e-16,4.6601791e-18
326.90000,1.0646958e-16,4.6601791e-18
327.00000,1.0728577e-16,4.6601791e-18
327.10000,1.0813001e-16,4.6601791e-18
327.20000,1.0878683e-16,4.6601791e-18
327.30000,1.0922618e-16,4.6601791e-18
327.40000,1.0957852e-16,4.6601791e-18
327.50000,1.1004678e-16,4.6601791e-18
327.60000,1.1079754e-16,4.6601791e-18
327.70000,1.1187955e-16,4.6601791e-18
327.80000,1.1319941e-16,4.6601791e-18
327.90000,1.1455414e-16,4.6601791e-18
328.00000,1.1569552e-16,4.6601791e-18
328.10000,1.1639460e-16,4.6601791e-18
328.20000,1.1648596e-16,4.6601791e-18
328.30000,1.1589002e-16,4.6601791e-18
328.40000,1.1462168e-16,4.6601791e-18
328.50000,1.1279188e-16,4.6601791e-18
328.60000,1.1059920e-16,4.6601791e-18
328.70000,1.0830392e-16,4.6601791e-18
328.80000,1.0618253e-16,4.6601791e-18
328.90000,1.0447333e-16,4.6601791e-18
329.00000,1.0333282e-16,4.6601791e-18
329.10000,1.0282007e-16,4.6601791e-18
329.20000,1.0291237e-16,4.6601791e-18
329.30000,1.0353935e-16,4.6601791e-18
329.40000,1.0461559e-16,4.6601791e-18
329.50000,1.0605698e-16,4.6601791e-18
329.60000,1.0777930e-16,4.6601791e-18
329.70000,1.0968827e-16,4.6601791e-18
329.80000,1.1167176e-16,4.6601791e-18
329.90000,1.1359849e-16,4.6601791e-18
330.00000,1.1532004e-16,4.6601791e-18
330.10000,1.1667152e-16,4.6601791e-18
330.20000,1.1747205e-16,4.6601791e-18
330.30000,1.1753249e-16,4.6601791e-18
330.40000,1.1667935e-16,4.6601791e-18
330.50000,1.1479586e-16,4.6601791e-18
330.60000,1.1186942e-16,4.6601791e-18
330.70000,1.0802534e-16,4.6601791e-18
330.80000,1.0352675e-16,4.6601791e-18
330.90000,9.8731364e-17,4.6601791e-18
331.00000,9.4012795e-17,4.6601791e-18
331.10000,8.9670989e-17,4.6601791e-18
331.20000,8.5864014e-17,4.6601791e-18
331.30000,8.2588372e-17,4.6601791e-18
331.40000,7.9717354e-17,4.6601791e-18
331.50000,7.7083323e-17,4.6601791e-18
331.60000,7.4570670e-17,4.6601791e-18
331.70000,7.2180805e-17,4.6601791e-18
331.80000,7.0042743e-17,4.6601791e-18
331.90000,6.8367715e-17,4.6601791e-18
332.00000,6.7371958e-17,4.6601791e-18
332.10000,6.7205743e-17,4.6601791e-18
332.20000,6.7921328e-17,4.6601791e-18
332.30000,6.9490352e-17,4.6601791e-18
332.40000,7.1853546e-17,4.6601791e-18
332.50000,7.4967432e-17,4.6601791e-18
332.60000,7.8814574e-17,4.6601791e-18
332.70000,8.3365864e-17,4.6601791e-18
332.80000,8.8513365e-17,4.6601791e-18
332.90000,9.4012797e-17,4.6601791e-18
333.00000,9.9472878e-17,4.6601791e-18
333.10000,1.0440532e-16,4.6601791e-18
333.20000,1.0831833e-16,4.6601791e-18
333.30000,1.1081642e-16,4.6601791e-18
333.40000,1.1167043e-16,4.6601791e-18
333.50000,1.1084040e-16,4.6601791e-18
333.60000,1.0845616e-16,4.6601791e-18
333.70000,1.0477356e-16,4.6601791e-18
333.80000,1.0012350e-16,4.6601791e-18
333.90000,9.4862684e-17,4.6601791e-18
334.00000,8.9328421e-17,4.6601791e-18
334.10000,8.3799379e-17,4.6601791e-18
334.20000,7.8468508e-17,4.6601791e-18
334.30000,7.3436168e-17,4.6601791e-18
334.40000,6.8726921e-17,4.6601791e-18
334.50000,6.4323957e-17,4.6601791e-18
334.60000,6.0207204e-17,4.6601791e-18
334.70000,5.6380416e-17,4.6601791e-18
334.80000,5.2879745e-17,4.6601791e-18
334.90000,4.9766045e-17,4.6601791e-18
335.00000,4.7109091e-17,4.6601791e-18
335.10000,4.4970830e-17,4.6601791e-18
335.20000,4.3389760e-17,4.6601791e-18
335.30000,4.2365268e-17,4.6601791e-18
335.40000,4.1843053e-17,4.6601791e-18
335.50000,4.1708750e-17,4.6601791e-18
335.60000,4.1800670e-17,4.6601791e-18
335.70000,4.1948338e-17,4.6601791e-18
335.80000,4.2030913e-17,4.6601791e-18
335.90000,4.2034453e-17,4.6601791e-18
336.00000,4.2078783e-17,4.6601791e-18
336.10000,4.2390699e-17,4.6601791e-18
336.20000,4.3220772e-17,4.6601791e-18
336.30000,4.4728009e-17,4.6601791e-18
336.40000,4.6877034e-17,4.6601791e-18
336.50000,4.9394546e-17,4.6601791e-18
336.60000,5.1812213e-17,4.6601791e-18
336.70000,5.3589134e-17,4.6601791e-18
336.80000,5.4273819e-17,4.6601791e-18
336.90000,5.3648375e-17,4.6601791e-18
337.00000,5.1803865e-17,4.6601791e-18
337.10000,4.9122143e-17,4.6601791e-18
337.20000,4.6173738e-17,4.6601791e-18
337.30000,4.3569345e-17,4.6601791e-18
337.40000,4.1814102e-17,4.6601791e-18
337.50000,4.1207100e-17,4.6601791e-18
337.60000,4.1808609e-17,4.6601791e-18
337.70000,4.3473548e-17,4.6601791e-18
337.80000,4.5930347e-17,4.6601791e-18
337.90000,4.8874667e-17,4.6601791e-18
338.00000,5.2048312e-17,4.6601791e-18
338.10000,5.5282713e-17,4.6601791e-18
338.20000,5.8500110e-17,4.6601791e-18
338.30000,6.1679816e-17,4.6601791e-18
338.40000,6.4807739e-17,4.6601791e-18
338.50000,6.7831020e-17,4.6601791e-18
338.60000,7.0635183e-17,4.6601791e-18
338.70000,7.3050858e-17,4.6601791e-18
338.80000,7.4886148e-17,4.6601791e-18
338.90000,7.5974030e-17,4.6601791e-18
339.00000,7.6222788e-17,4.6601791e-18
339.10000,7.5658970e-17,4.6601791e-18
339.20000,7.4453138e-17,4.6601791e-18
339.30000,7.2918597e-17,4.6601791e-18
339.40000,7.1475410e-17,4.6601791e-18
339.50000,7.0579639e-17,4.6601791e-18
339.60000,7.0629838e-17,4.6601791e-18
339.70000,7.1873696e-17,4.6601791e-18
339.80000,7.4340861e-17,4.6601791e-18
339.90000,7.7821250e-17,4.6601791e-18
340.00000,8.1895066e-17,4.6601791e-18
340.10000,8.6007483e-17,4.6601791e-18
340.20000,8.9571802e-17,4.6601791e-18
340.30000,9.2080166e-17,4.6601791e-18
340.40000,9.3199377e-17,4.6601791e-18
340.50000,9.2830491e-17,4.6601791e-18
340.60000,9.1116357e-17,4.6601791e-18
340.70000,8.8392387e-17,4.6601791e-18
340.80000,8.5091478e-17,4.6601791e-18
340.90000,8.1629366e-17,4.6601791e-18
341.00000,7.8305597e-17,4.6601791e-18
341.10000,7.5252694e-17,4.6601791e-18
341.20000,7.2450939e-17,4.6601791e-18
341.30000,6.9802403e-17,4.6601791e-18
341.40000,6.7233889e-17,4.6601791e-18
341.50000,6.4784477e-17,4.6601791e-18
341.60000,6.2637087e-17,4.6601791e-18
341.70000,6.1075492e-17,4.6601791e-18
341.80000,6.0380697e-17,4.6601791e-18
341.90000,6.0709164e-17,4.6601791e-18
342.00000,6.2006417e-17,4.6601791e-18
342.10000,6.3996828e-17,4.6601791e-18
342.20000,6.6258829e-17,4.6601791e-18
342.30000,6.8358250e-17,4.6601791e-18
342.40000,6.9987173e-17,4.6601791e-18
342.50000,7.1052467e-17,4.6601791e-18
342.60000,7.1678412e-17,4.6601791e-18
342.70000,7.2123014e-17,4.6601791e-18
342.80000,7.2643228e-17,4.6601791e-18
342.90000,7.3365476e-17,4.6601791e-18
343.00000,7.4215302e-17,4.6601791e-18
343.10000,7.4934180e-17,4.6601791e-18
343.20000,7.5173413e-17,4.6601791e-18
343.30000,7.4621872e-17,4.6601791e-18
343.40000,7.3111706e-17,4.6601791e-18
343.50000,7.0660025e-17,4.6601791e-18
343.60000,6.7437394e-17,4.6601791e-18
343.70000,6.3688712e-17,4.6601791e-18
343.80000,5.9650945e-17,4.6601791e-18
343.90000,5.5506968e-17,4.6601791e-18
344.00000,5.1390454e-17,4.6601791e-18
344.10000,4.7427997e-17,4.6601791e-18
344.20000,4.3786952e-17,4.6601791e-18
344.30000,4.0698091e-17,4.6601791e-18
344.40000,3.8437983e-17,4.6601791e-18
344.50000,3.7276445e-17,4.6601791e-18
344.60000,3.7409168e-17,4.6601791e-18
344.70000,3.8899675e-17,4.6601791e-18
344.80000,4.1649416e-17,4.6601791e-18
344.90000,4.5404624e-17,4.6601791e-18
345.00000,4.9797762e-17,4.6601791e-18
345.10000,5.4412117e-17,4.6601791e-18
345.20000,5.8851786e-17,4.6601791e-18
345.30000,6.2797718e-17,4.6601791e-18
345.40000,6.6035438e-17,4.6601791e-18
345.50000,6.8451245e-17,4.6601791e-18
345.60000,7.0006731e-17,4.6601791e-18
345.70000,7.0709769e-17,4.6601791e-18
345.80000,7.0598435e-17,4.6601791e-18
345.90000,6.9743344e-17,4.6601791e-18
346.00000,6.8260435e-17,4.6601791e-18
346.10000,6.6318900e-17,4.6601791e-18
346.20000,6.4132399e-17,4.6601791e-18
346.30000,6.1932895e-17,4.6601791e-18
346.40000,5.9937257e-17,4.6601791e-18
346.50000,5.8319847e-17,4.6601791e-18
346.60000,5.7198194e-17,4.6601791e-18
346.70000,5.6628920e-17,4.6601791e-18
346.80000,5.6605121e-17,4.6601791e-18
346.90000,5.7049309e-17,4.6601791e-18
347.00000,5.7806124e-17,4.6601791e-18
347.10000,5.8649071e-17,4.6601791e-18
347.20000,5.9317088e-17,4.6601791e-18
347.30000,5.9585617e-17,4.6601791e-18
347.40000,5.9356729e-17,4.6601791e-18
347.50000,5.8734392e-17,4.6601791e-18
347.60000,5.8046134e-17,4.6601791e-18
347.70000,5.7787359e-17,4.6601791e-18
347.80000,5.8494797e-17,4.6601791e-18
347.90000,6.0587221e-17,4.6601791e-18
348.00000,6.4228638e-17,4.6601791e-18
348.10000,6.9262585e-17,4.6601791e-18
348.20000,7.5238667e-17,4.6601791e-18
348.30000,8.1517123e-17,4.6601791e-18
348.40000,8.7410396e-17,4.6601791e-18
348.50000,9.2313750e-17,4.6601791e-18
348.60000,9.5790870e-17,4.6601791e-18
348.70000,9.7606123e-17,4.6601791e-18
348.80000,9.7718531e-17,4.6601791e-18
348.90000,9.6261919e-17,4.6601791e-18
349.00000,9.3527976e-17,4.6601791e-18
349.10000,8.9951323e-17,4.6601791e-18
349.20000,8.6080948e-17,4.6601791e-18
349.30000,8.2521543e-17,4.6601791e-18
349.40000,7.9842943e-17,4.6601791e-18
349.50000,7.8477383e-17,4.6601791e-18
349.60000,7.8638511e-17,4.6601791e-18
349.70000,8.0292956e-17,4.6601791e-18
349.80000,8.3195151e-17,4.6601791e-18
349.90000,8.6969844e-17,4.6601791e-18
350.00000,9.1208985e-17,4.6601791e-18
350.10000,9.5549205e-17,4.6601791e-18
350.20000,9.9711089e-17,4.6601791e-18
350.30000,1.0350136e-16,4.6601791e-18
350.40000,1.0679258e-16,4.6601791e-18
350.50000,1.0949719e-16,4.6601791e-18
350.60000,1.1154633e-16,4.6601791e-18
350.70000,1.1287660e-16,4.6601791e-18
350.80000,1.1342425e-16,4.6601791e-18
350.90000,1.1312754e-16,4.6601791e-18
351.00000,1.1193991e-16,4.6601791e-18
351.10000,1.0985624e-16,4.6601791e-18
351.20000,1.0694927e-16,4.6601791e-18
351.30000,1.0340483e-16,4.6601791e-18
351.40000,9.9537715e-17,4.6601791e-18
351.50000,9.5768858e-17,4.6601791e-18
351.60000,9.2554722e-17,4.6601791e-18
351.70000,9.0278372e-17,4.6601791e-18
351.80000,8.9132947e-17,4.6601791e-18
351.90000,8.9040176e-17,4.6601791e-18
352.00000,8.9640921e-17,4.6601791e-18
352.10000,9.0371225e-17,4.6601791e-18
352.20000,9.0605769e-17,4.6601791e-18
352.30000,8.9825604e-17,4.6601791e-18
352.40000,8.7759376e-17,4.6601791e-18
