wave,flux,fluxerr
300.00000,4.3547479e-15,1.0129205e-16
300.10000,4.3945010e-15,1.0129205e-16
300.20000,4.3601750e-15,1.0129205e-16
300.30000,4.2608568e-15,1.0129205e-16
300.40000,4.1132716e-15,1.0129205e-16
300.50000,3.9387587e-15,1.0129205e-16
300.60000,3.7597233e-15,1.0129205e-16
300.70000,3.5964799e-15,1.0129205e-16
300.80000,3.4651468e-15,1.0129205e-16
300.90000,3.3767126e-15,1.0129205e-16
301.00000,3.3368678e-15,1.0129205e-16
301.10000,3.3459943e-15,1.0129205e-16
301.20000,3.3989797e-15,1.0129205e-16
301.30000,3.4850887e-15,1.0129205e-16
301.40000,3.5885630e-15,1.0129205e-16
301.50000,3.6905858e-15,1.0129205e-16
301.60000,3.7726823e-15,1.0129205e-16
301.70000,3.8208396e-15,1.0129205e-16
301.80000,3.8290657e-15,1.0129205e-16
301.90000,3.8010883e-15,1.0129205e-16
302.00000,3.7494382e-15,1.0129205e-16
302.10000,3.6920226e-15,1.0129205e-16
302.20000,3.6471466e-15,1.0129205e-16
302.30000,3.6284746e-15,1.0129205e-16
302.40000,3.6414886e-15,1.0129205e-16
302.50000,3.6825560e-15,1.0129205e-16
302.60000,3.7408872e-15,1.0129205e-16
302.70000,3.8026943e-15,1.0129205e-16
302.80000,3.8560954e-15,1.0129205e-16
302.90000,3.8950596e-15,1.0129205e-16
303.00000,3.9210787e-15,1.0129205e-16
303.10000,3.9421182e-15,1.0129205e-16
303.20000,3.9693887e-15,1.0129205e-16
303.30000,4.0131640e-15,1.0129205e-16
303.40000,4.0790538e-15,1.0129205e-16
303.50000,4.1658279e-15,1.0129205e-16
303.60000,4.2653029e-15,1.0129205e-16
303.70000,4.3641719e-15,1.0129205e-16
303.80000,4.4471658e-15,1.0129205e-16
303.90000,4.5006489e-15,1.0129205e-16
304.00000,4.5157284e-15,1.0129205e-16
304.10000,4.4901612e-15,1.0129205e-16
304.20000,4.4287171e-15,1.0129205e-16
304.30000,4.3420795e-15,1.0129205e-16
304.40000,4.2446929e-15,1.0129205e-16
304.50000,4.1521333e-15,1.0129205e-16
304.60000,4.0785700e-15,1.0129205e-16
304.70000,4.0347607e-15,1.0129205e-16
304.80000,4.0268215e-15,1.0129205e-16
304.90000,4.0557933e-15,1.0129205e-16
305.00000,4.1178420e-15,1.0129205e-16
305.10000,4.2048448e-15,1.0129205e-16
305.20000,4.3051857e-15,1.0129205e-16
305.30000,4.4047613e-15,1.0129205e-16
305.40000,4.4883717e-15,1.0129205e-16
305.50000,4.5416758e-15,1.0129205e-16
305.60000,4.5536469e-15,1.0129205e-16
305.70000,4.5190547e-15,1.0129205e-16
305.80000,4.4401637e-15,1.0129205e-16
305.90000,4.3268185e-15,1.0129205e-16
306.00000,4.1945385e-15,1.0129205e-16
306.10000,4.0610079e-15,1.0129205e-16
306.20000,3.9420808e-15,1.0129205e-16
306.30000,3.8487098e-15,1.0129205e-16
306.40000,3.7858234e-15,1.0129205e-16
306.50000,3.7532848e-15,1.0129205e-16
306.60000,3.7481154e-15,1.0129205e-16
306.70000,3.7666879e-15,1.0129205e-16
306.80000,3.8058495e-15,1.0129205e-16
306.90000,3.8627359e-15,1.0129205e-16
307.00000,3.9338676e-15,1.0129205e-16
307.10000,4.0144632e-15,1.0129205e-16
307.20000,4.0985898e-15,1.0129205e-16
307.30000,4.1800775e-15,1.0129205e-16
307.40000,4.2535878e-15,1.0129205e-16
307.50000,4.3151975e-15,1.0129205e-16
307.60000,4.3623302e-15,1.0129205e-16
307.70000,4.3934162e-15,1.0129205e-16
307.80000,4.4078570e-15,1.0129205e-16
307.90000,4.4065655e-15,1.0129205e-16
308.00000,4.3927744e-15,1.0129205e-16
308.10000,4.3724055e-15,1.0129205e-16
308.20000,4.3533551e-15,1.0129205e-16
308.30000,4.3435779e-15,1.0129205e-16
308.40000,4.3485192e-15,1.0129205e-16
308.50000,4.3688964e-15,1.0129205e-16
308.60000,4.3998178e-15,1.0129205e-16
308.70000,4.4317628e-15,1.0129205e-16
308.80000,4.4532251e-15,1.0129205e-16
308.90000,4.4541515e-15,1.0129205e-16
309.00000,4.4289671e-15,1.0129205e-16
309.10000,4.3781236e-15,1.0129205e-16
309.20000,4.3076902e-15,1.0129205e-16
309.30000,4.2272797e-15,1.0129205e-16
309.40000,4.1472245e-15,1.0129205e-16
309.50000,4.0761128e-15,1.0129205e-16
309.60000,4.0194874e-15,1.0129205e-16
309.70000,3.9798766e-15,1.0129205e-16
309.80000,3.9576884e-15,1.0129205e-16
309.90000,3.9521798e-15,1.0129205e-16
310.00000,3.9618635e-15,1.0129205e-16
310.10000,3.9842298e-15,1.0129205e-16
310.20000,4.0152298e-15,1.0129205e-16
310.30000,4.0492371e-15,1.0129205e-16
310.40000,4.0799842e-15,1.0129205e-16
310.50000,4.1023626e-15,1.0129205e-16
310.60000,4.1143320e-15,1.0129205e-16
310.70000,4.1179095e-15,1.0129205e-16
310.80000,4.1185224e-15,1.0129205e-16
310.90000,4.1227798e-15,1.0129205e-16
311.00000,4.1355457e-15,1.0129205e-16
311.10000,4.1576145e-15,1.0129205e-16
311.20000,4.1850433e-15,1.0129205e-16
311.30000,4.2104164e-15,1.0129205e-16
311.40000,4.2254114e-15,1.0129205e-16
311.50000,4.2234938e-15,1.0129205e-16
311.60000,4.2016370e-15,1.0129205e-16
311.70000,4.1605758e-15,1.0129205e-16
311.80000,4.1038857e-15,1.0129205e-16
311.90000,4.0367200e-15,1.0129205e-16
312.00000,3.9650396e-15,1.0129205e-16
312.10000,3.8956753e-15,1.0129205e-16
312.20000,3.8368523e-15,1.0129205e-16
312.30000,3.7983129e-15,1.0129205e-16
312.40000,3.7902110e-15,1.0129205e-16
312.50000,3.8205696e-15,1.0129205e-16
312.60000,3.8919836e-15,1.0129205e-16
312.70000,3.9989557e-15,1.0129205e-16
312.80000,4.1273279e-15,1.0129205e-16
312.90000,4.2566166e-15,1.0129205e-16
313.00000,4.3649047e-15,1.0129205e-16
313.10000,4.4348119e-15,1.0129205e-16
313.20000,4.4584790e-15,1.0129205e-16
313.30000,4.4397421e-15,1.0129205e-16
313.40000,4.3926843e-15,1.0129205e-16
313.50000,4.3371098e-15,1.0129205e-16
313.60000,4.2926173e-15,1.0129205e-16
313.70000,4.2733726e-15,1.0129205e-16
313.80000,4.2852235e-15,1.0129205e-16
313.90000,4.3257099e-15,1.0129205e-16
314.00000,4.3863397e-15,1.0129205e-16
314.10000,4.4557958e-15,1.0129205e-16
314.20000,4.5227813e-15,1.0129205e-16
314.30000,4.5778491e-15,1.0129205e-16
314.40000,4.6143317e-15,1.0129205e-16
314.50000,4.6289030e-15,1.0129205e-16
314.60000,4.6221615e-15,1.0129205e-16
314.70000,4.5991211e-15,1.0129205e-16
314.80000,4.5690490e-15,1.0129205e-16
314.90000,4.5440662e-15,1.0129205e-16
315.00000,4.5364173e-15,1.0129205e-16
315.10000,4.5550355e-15,1.0129205e-16
315.20000,4.6025707e-15,1.0129205e-16
315.30000,4.6740637e-15,1.0129205e-16
315.40000,4.7578848e-15,1.0129205e-16
315.50000,4.8386922e-15,1.0129205e-16
315.60000,4.9014011e-15,1.0129205e-16
315.70000,4.9348593e-15,1.0129205e-16
315.80000,4.9341625e-15,1.0129205e-16
315.90000,4.9011513e-15,1.0129205e-16
316.00000,4.8432680e-15,1.0129205e-16
316.10000,4.7713606e-15,1.0129205e-16
316.20000,4.6971253e-15,1.0129205e-16
316.30000,4.6307593e-15,1.0129205e-16
316.40000,4.5792200e-15,1.0129205e-16
316.50000,4.5453399e-15,1.0129205e-16
316.60000,4.5279134e-15,1.0129205e-16
316.70000,4.5227060e-15,1.0129205e-16
316.80000,4.5240914e-15,1.0129205e-16
316.90000,4.5267971e-15,1.0129205e-16
317.00000,4.5271580e-15,1.0129205e-16
317.10000,4.5234628e-15,1.0129205e-16
317.20000,4.5153740e-15,1.0129205e-16
317.30000,4.5028307e-15,1.0129205e-16
317.40000,4.4850550e-15,1.0129205e-16
317.50000,4.4601642e-15,1.0129205e-16
317.60000,4.4255271e-15,1.0129205e-16
317.70000,4.3786297e-15,1.0129205e-16
317.80000,4.3180290e-15,1.0129205e-16
317.90000,4.2440403e-15,1.0129205e-16
318.00000,4.1590229e-15,1.0129205e-16
318.10000,4.0673297e-15,1.0129205e-16
318.20000,3.9750604e-15,1.0129205e-16
318.30000,3.8896750e-15,1.0129205e-16
318.40000,3.8193881e-15,1.0129205e-16
318.50000,3.7721878e-15,1.0129205e-16
318.60000,3.7544240e-15,1.0129205e-16
318.70000,3.7691638e-15,1.0129205e-16
318.80000,3.8147852e-15,1.0129205e-16
318.90000,3.8843804e-15,1.0129205e-16
319.00000,3.9663733e-15,1.0129205e-16
319.10000,4.0463786e-15,1.0129205e-16
319.20000,4.1099455e-15,1.0129205e-16
319.30000,4.1455910e-15,1.0129205e-16
319.40000,4.1474868e-15,1.0129205e-16
319.50000,4.1172268e-15,1.0129205e-16
319.60000,4.0642088e-15,1.0129205e-16
319.70000,4.0043242e-15,1.0129205e-16
319.80000,3.9569523e-15,1.0129205e-16
319.90000,3.9407297e-15,1.0129205e-16
320.00000,3.9690748e-15,1.0129205e-16
320.10000,4.0467385e-15,1.0129205e-16
320.20000,4.1684771e-15,1.0129205e-16
320.30000,4.3202993e-15,1.0129205e-16
320.40000,4.4828677e-15,1.0129205e-16
320.50000,4.6359428e-15,1.0129205e-16
320.60000,4.7625324e-15,1.0129205e-16
320.70000,4.8517065e-15,1.0129205e-16
320.80000,4.8996250e-15,1.0129205e-16
320.90000,4.9089091e-15,1.0129205e-16
321.00000,4.8868661e-15,1.0129205e-16
321.10000,4.8432116e-15,1.0129205e-16
321.20000,4.7878941e-15,1.0129205e-16
321.30000,4.7294785e-15,1.0129205e-16
321.40000,4.6743353e-15,1.0129205e-16
321.50000,4.6266190e-15,1.0129205e-16
321.60000,4.5887798e-15,1.0129205e-16
321.70000,4.5622159e-15,1.0129205e-16
321.80000,4.5477006e-15,1.0129205e-16
321.90000,4.5453982e-15,1.0129205e-16
322.00000,4.5545145e-15,1.0129205e-16
322.10000,4.5728022e-15,1.0129205e-16
322.20000,4.5961925e-15,1.0129205e-16
322.30000,4.6187696e-15,1.0129205e-16
322.40000,4.6332091e-15,1.0129205e-16
322.50000,4.6317128e-15,1.0129205e-16
322.60000,4.6073680e-15,1.0129205e-16
322.70000,4.5557054e-15,1.0129205e-16
322.80000,4.4760345e-15,1.0129205e-16
322.90000,4.3720221e-15,1.0129205e-16
323.00000,4.2511190e-15,1.0129205e-16
323.10000,4.1228706e-15,1.0129205e-16
323.20000,3.9967086e-15,1.0129205e-16
323.30000,3.8801557e-15,1.0129205e-16
323.40000,3.7782109e-15,1.0129205e-16
323.50000,3.6940356e-15,1.0129205e-16
323.60000,3.6303050e-15,1.0129205e-16
323.70000,3.5902256e-15,1.0129205e-16
323.80000,3.5774966e-15,1.0129205e-16
323.90000,3.5952399e-15,1.0129205e-16
324.00000,3.6446104e-15,1.0129205e-16
324.10000,3.7239740e-15,1.0129205e-16
324.20000,3.8291088e-15,1.0129205e-16
324.30000,3.9541979e-15,1.0129205e-16
324.40000,4.0929587e-15,1.0129205e-16
324.50000,4.2393432e-15,1.0129205e-16
324.60000,4.3877311e-15,1.0129205e-16
324.70000,4.5329717e-15,1.0129205e-16
324.80000,4.6706851e-15,1.0129205e-16
324.90000,4.7978854e-15,1.0129205e-16
325.00000,4.9135671e-15,1.0129205e-16
325.10000,5.0187518e-15,1.0129205e-16
325.20000,5.1157564e-15,1.0129205e-16
325.30000,5.2069000e-15,1.0129205e-16
325.40000,5.2931842e-15,1.0129205e-16
325.50000,5.3734593e-15,1.0129205e-16
325.60000,5.4443052e-15,1.0129205e-16
325.70000,5.5005573e-15,1.0129205e-16
325.80000,5.5362736e-15,1.0129205e-16
325.90000,5.5459559e-15,1.0129205e-16
326.00000,5.5258733e-15,1.0129205e-16
326.10000,5.4752819e-15,1.0129205e-16
326.20000,5.3972333e-15,1.0129205e-16
326.30000,5.2986521e-15,1.0129205e-16
326.40000,5.1895144e-15,1.0129205e-16
326.50000,5.0812343e-15,1.0129205e-16
326.60000,4.9846268e-15,1.0129205e-16
326.70000,4.9079532e-15,1.0129205e-16
326.80000,4.8555292e-15,1.0129205e-16
326.90000,4.8272448e-15,1.0129205e-16
327.00000,4.8191288e-15,1.0129205e-16
327.10000,4.8248234e-15,1.0129205e-16
327.20000,4.8375558e-15,1.0129205e-16
327.30000,4.8519908e-15,1.0129205e-16
327.40000,4.8653617e-15,1.0129205e-16
327.50000,4.8775527e-15,1.0129205e-16
327.60000,4.8902432e-15,1.0129205e-16
327.70000,4.9056010e-15,1.0129205e-16
327.80000,4.9251152e-15,1.0129205e-16
327.90000,4.9489694e-15,1.0129205e-16
328.00000,4.9760284e-15,1.0129205e-16
328.10000,5.0042562e-15,1.0129205e-16
328.20000,5.0313125e-15,1.0129205e-16
328.30000,5.0551226e-15,1.0129205e-16
328.40000,5.0742790e-15,1.0129205e-16
328.50000,5.0881626e-15,1.0129205e-16
328.60000,5.0967480e-15,1.0129205e-16
328.70000,5.1001745e-15,1.0129205e-16
328.80000,5.0983915e-15,1.0129205e-16
328.90000,5.0912091e-15,1.0129205e-16
329.00000,5.0789139e-15,1.0129205e-16
329.10000,5.0632279e-15,1.0129205e-16
329.20000,5.0480442e-15,1.0129205e-16
329.30000,5.0393209e-15,1.0129205e-16
329.40000,5.0438452e-15,1.0129205e-16
329.50000,5.0671525e-15,1.0129205e-16
329.60000,5.1113819e-15,1.0129205e-16
329.70000,5.1739846e-15,1.0129205e-16
329.80000,5.2478900e-15,1.0129205e-16
329.90000,5.3231285e-15,1.0129205e-16
330.00000,5.3893251e-15,1.0129205e-16
330.10000,5.4381839e-15,1.0129205e-16
330.20000,5.4651800e-15,1.0129205e-16
330.30000,5.4700575e-15,1.0129205e-16
330.40000,5.4561916e-15,1.0129205e-16
330.50000,5.4292070e-15,1.0129205e-16
330.60000,5.3953761e-15,1.0129205e-16
330.70000,5.3602461e-15,1.0129205e-16
330.80000,5.3277529e-15,1.0129205e-16
330.90000,5.2998622e-15,1.0129205e-16
331.00000,5.2766324e-15,1.0129205e-16
331.10000,5.2565535e-15,1.0129205e-16
331.20000,5.2370704e-15,1.0129205e-16
331.30000,5.2152485e-15,1.0129205e-16
331.40000,5.1885203e-15,1.0129205e-16
331.50000,5.1553581e-15,1.0129205e-16
331.60000,5.1156410e-15,1.0129205e-16
331.70000,5.0705404e-15,1.0129205e-16
331.80000,5.0219464e-15,1.0129205e-16
331.90000,4.9717160e-15,1.0129205e-16
332.00000,4.9211694e-15,1.0129205e-16
332.10000,4.8711956e-15,1.0129205e-16
332.20000,4.8230414e-15,1.0129205e-16
332.30000,4.7794734e-15,1.0129205e-16
332.40000,4.7456799e-15,1.0129205e-16
332.50000,4.7292196e-15,1.0129205e-16
332.60000,4.7386172e-15,1.0129205e-16
332.70000,4.7808232e-15,1.0129205e-16
332.80000,4.8584219e-15,1.0129205e-16
332.90000,4.9678106e-15,1.0129205e-16
333.00000,5.0992917e-15,1.0129205e-16
333.10000,5.2391796e-15,1.0129205e-16
333.20000,5.3730551e-15,1.0129205e-16
333.30000,5.4887634e-15,1.0129205e-16
333.40000,5.5779910e-15,1.0129205e-16
333.50000,5.6361073e-15,1.0129205e-16
333.60000,5.6609100e-15,1.0129205e-16
333.70000,5.6513905e-15,1.0129205e-16
333.80000,5.6074027e-15,1.0129205e-16
333.90000,5.5303695e-15,1.0129205e-16
334.00000,5.4244058e-15,1.0129205e-16
334.10000,5.2969120e-15,1.0129205e-16
334.20000,5.1579750e-15,1.0129205e-16
334.30000,5.0185703e-15,1.0129205e-16
334.40000,4.8882011e-15,1.0129205e-16
334.50000,4.7728789e-15,1.0129205e-16
334.60000,4.6741720e-15,1.0129205e-16
334.70000,4.5895912e-15,1.0129205e-16
334.80000,4.5141194e-15,1.0129205e-16
334.90000,4.4423981e-15,1.0129205e-16
335.00000,4.3709747e-15,1.0129205e-16
335.10000,4.3000121e-15,1.0129205e-16
335.20000,4.2339340e-15,1.0129205e-16
335.30000,4.1806728e-15,1.0129205e-16
335.40000,4.1495613e-15,1.0129205e-16
335.50000,4.1484077e-15,1.0129205e-16
335.60000,4.1807179e-15,1.0129205e-16
335.70000,4.2441339e-15,1.0129205e-16
335.80000,4.3308009e-15,1.0129205e-16
335.90000,4.4296503e-15,1.0129205e-16
336.00000,4.5297742e-15,1.0129205e-16
336.10000,4.6235365e-15,1.0129205e-16
336.20000,4.7081075e-15,1.0129205e-16
336.30000,4.7847586e-15,1.0129205e-16
336.40000,4.8562749e-15,1.0129205e-16
336.50000,4.9237729e-15,1.0129205e-16
336.60000,4.9845746e-15,1.0129205e-16
336.70000,5.0323434e-15,1.0129205e-16
336.80000,5.0596022e-15,1.0129205e-16
336.90000,5.0615434e-15,1.0129205e-16
337.00000,5.0393213e-15,1.0129205e-16
337.10000,5.0011747e-15,1.0129205e-16
337.20000,4.9606882e-15,1.0129205e-16
337.30000,4.9327830e-15,1.0129205e-16
337.40000,4.9290082e-15,1.0129205e-16
337.50000,4.9539489e-15,1.0129205e-16
337.60000,5.0040396e-15,1.0129205e-16
337.70000,5.0690825e-15,1.0129205e-16
337.80000,5.1357884e-15,1.0129205e-16
337.90000,5.1920342e-15,1.0129205e-16
338.00000,5.2304226e-15,1.0129205e-16
338.10000,5.2500733e-15,1.0129205e-16
338.20000,5.2562067e-15,1.0129205e-16
338.30000,5.2577922e-15,1.0129205e-16
338.40000,5.2641130e-15,1.0129205e-16
338.50000,5.2813743e-15,1.0129205e-16
338.60000,5.3103880e-15,1.0129205e-16
338.70000,5.3459592e-15,1.0129205e-16
338.80000,5.3780702e-15,1.0129205e-16
338.90000,5.3944927e-15,1.0129205e-16
339.00000,5.3841648e-15,1.0129205e-16
339.10000,5.3405246e-15,1.0129205e-16
339.20000,5.2639644e-15,1.0129205e-16
339.30000,5.1626591e-15,1.0129205e-16
339.40000,5.0513263e-15,1.0129205e-16
339.50000,4.9480338e-15,1.0129205e-16
339.60000,4.8698572e-15,1.0129205e-16
339.70000,4.8287243e-15,1.0129205e-16
339.80000,4.8288254e-15,1.0129205e-16
339.90000,4.8664186e-15,1.0129205e-16
340.00000,4.9319204e-15,1.0129205e-16
340.10000,5.0132888e-15,1.0129205e-16
340.20000,5.0993177e-15,1.0129205e-16
340.30000,5.1817238e-15,1.0129205e-16
340.40000,5.2556273e-15,1.0129205e-16
340.50000,5.3187985e-15,1.0129205e-16
340.60000,5.3704602e-15,1.0129205e-16
340.70000,5.4103655e-15,1.0129205e-16
340.80000,5.4384374e-15,1.0129205e-16
340.90000,5.4547879e-15,1.0129205e-16
341.00000,5.4597166e-15,1.0129205e-16
341.10000,5.4534305e-15,1.0129205e-16
341.20000,5.4355811e-15,1.0129205e-16
341.30000,5.4050250e-15,1.0129205e-16
341.40000,5.3602284e-15,1.0129205e-16
341.50000,5.3004157e-15,1.0129205e-16
341.60000,5.2270726e-15,1.0129205e-16
341.70000,5.1450443e-15,1.0129205e-16
341.80000,5.0624733e-15,1.0129205e-16
341.90000,4.9892508e-15,1.0129205e-16
342.00000,4.9343417e-15,1.0129205e-16
342.10000,4.9029510e-15,1.0129205e-16
342.20000,4.8947239e-15,1.0129205e-16
342.30000,4.9038478e-15,1.0129205e-16
342.40000,4.9211584e-15,1.0129205e-16
342.50000,4.9374636e-15,1.0129205e-16
342.60000,4.9467131e-15,1.0129205e-16
342.70000,4.9476624e-15,1.0129205e-16
342.80000,4.9433554e-15,1.0129205e-16
342.90000,4.9387816e-15,1.0129205e-16
343.00000,4.9379412e-15,1.0129205e-16
343.10000,4.9417988e-15,1.0129205e-16
343.20000,4.9480727e-15,1.0129205e-16
343.30000,4.9527661e-15,1.0129205e-16
343.40000,4.9523963e-15,1.0129205e-16
343.50000,4.9455624e-15,1.0129205e-16
343.60000,4.9330030e-15,1.0129205e-16
343.70000,4.9163038e-15,1.0129205e-16
343.80000,4.8963024e-15,1.0129205e-16
343.90000,4.8724406e-15,1.0129205e-16
344.00000,4.8437128e-15,1.0129205e-16
344.10000,4.8108060e-15,1.0129205e-16
344.20000,4.7781651e-15,1.0129205e-16
344.30000,4.7545664e-15,1.0129205e-16
344.40000,4.7514443e-15,1.0129205e-16
344.50000,4.7793293e-15,1.0129205e-16
344.60000,4.8437203e-15,1.0129205e-16
344.70000,4.9420455e-15,1.0129205e-16
344.80000,5.0629409e-15,1.0129205e-16
344.90000,5.1881698e-15,1.0129205e-16
345.00000,5.2965721e-15,1.0129205e-16
345.10000,5.3688408e-15,1.0129205e-16
345.20000,5.3918042e-15,1.0129205e-16
345.30000,5.3611513e-15,1.0129205e-16
345.40000,5.2819942e-15,1.0129205e-16
345.50000,5.1671986e-15,1.0129205e-16
345.60000,5.0339659e-15,1.0129205e-16
345.70000,4.8996225e-15,1.0129205e-16
345.80000,4.7778270e-15,1.0129205e-16
345.90000,4.6762672e-15,1.0129205e-16
346.00000,4.5963876e-15,1.0129205e-16
346.10000,4.5349427e-15,1.0129205e-16
346.20000,4.4865581e-15,1.0129205e-16
346.30000,4.4462652e-15,1.0129205e-16
346.40000,4.4112070e-15,1.0129205e-16
346.50000,4.3811897e-15,1.0129205e-16
346.60000,4.3582076e-15,1.0129205e-16
346.70000,4.3453113e-15,1.0129205e-16
346.80000,4.3452234e-15,1.0129205e-16
346.90000,4.3590538e-15,1.0129205e-16
347.00000,4.3854244e-15,1.0129205e-16
347.10000,4.4202858e-15,1.0129205e-16
347.20000,4.4576187e-15,1.0129205e-16
347.30000,4.4909869e-15,1.0129205e-16
347.40000,4.5155821e-15,1.0129205e-16
347.50000,4.5301089e-15,1.0129205e-16
347.60000,4.5377788e-15,1.0129205e-16
347.70000,4.5459066e-15,1.0129205e-16
347.80000,4.5640853e-15,1.0129205e-16
347.90000,4.6014469e-15,1.0129205e-16
348.00000,4.6638902e-15,1.0129205e-16
348.10000,4.7521769e-15,1.0129205e-16
348.20000,4.8614816e-15,1.0129205e-16
348.30000,4.9824378e-15,1.0129205e-16
348.40000,5.1031901e-15,1.0129205e-16
348.50000,5.2116718e-15,1.0129205e-16
348.60000,5.2974004e-15,1.0129205e-16
348.70000,5.3524648e-15,1.0129205e-16
348.80000,5.3718602e-15,1.0129205e-16
348.90000,5.3536113e-15,1.0129205e-16
349.00000,5.2990671e-15,1.0129205e-16
349.10000,5.2133993e-15,1.0129205e-16
349.20000,5.1059481e-15,1.0129205e-16
349.30000,4.9898979e-15,1.0129205e-16
349.40000,4.8809421e-15,1.0129205e-16
349.50000,4.7950145e-15,1.0129205e-16
349.60000,4.7455812e-15,1.0129205e-16
349.70000,4.7411963e-15,1.0129205e-16
349.80000,4.7839380e-15,1.0129205e-16
349.90000,4.8690492e-15,1.0129205e-16
350.00000,4.9857667e-15,1.0129205e-16
350.10000,5.1190985e-15,1.0129205e-16
350.20000,5.2522316e-15,1.0129205e-16
350.30000,5.3692443e-15,1.0129205e-16
350.40000,5.4577519e-15,1.0129205e-16
350.50000,5.5109984e-15,1.0129205e-16
350.60000,5.5288283e-15,1.0129205e-16
350.70000,5.5171023e-15,1.0129205e-16
350.80000,5.4855343e-15,1.0129205e-16
350.90000,5.4445204e-15,1.0129205e-16
351.00000,5.4020187e-15,1.0129205e-16
351.10000,5.3616416e-15,1.0129205e-16
351.20000,5.3227156e-15,1.0129205e-16
351.30000,5.2822668e-15,1.0129205e-16
351.40000,5.2380406e-15,1.0129205e-16
351.50000,5.1911523e-15,1.0129205e-16
351.60000,5.1470612e-15,1.0129205e-16
351.70000,5.1142699e-15,1.0129205e-16
351.80000,5.1011759e-15,1.0129205e-16
351.90000,5.1123629e-15,1.0129205e-16
352.00000,5.1458997e-15,1.0129205e-16
352.10000,5.1927985e-15,1.0129205e-16
352.20000,5.2388888e-15,1.0129205e-16
352.30000,5.2684540e-15,1.0129205e-16
352.40000,5.2684128e-15,1.0129205e-16
