wave,flux
338.000,9.14836e-16
340.000,8.95523e-16
342.000,8.76708e-16
344.000,8.58405e-16
346.000,8.40565e-16
348.000,8.23196e-16
350.000,8.04570e-16
352.000,7.80000e-16
354.000,7.47663e-16
356.000,7.28940e-16
358.000,7.06006e-16
360.000,6.88266e-16
362.000,6.86124e-16
364.000,6.86409e-16
366.000,6.85711e-16
368.000,6.73957e-16
370.000,6.56121e-16
372.000,6.37681e-16
374.000,6.28072e-16
376.000,6.18439e-16
378.000,6.14394e-16
380.000,6.08459e-16
382.000,5.95490e-16
384.000,5.83066e-16
386.000,5.73710e-16
388.000,5.60121e-16
390.000,5.51974e-16
392.000,5.43071e-16
394.000,5.30253e-16
396.000,5.07897e-16
398.000,5.03110e-16
400.000,5.09914e-16
402.000,5.12159e-16
404.000,5.03632e-16
406.000,4.85146e-16
408.000,4.56005e-16
410.000,4.24332e-16
412.000,4.31229e-16
414.000,4.48031e-16
416.000,4.53960e-16
418.000,4.53788e-16
420.000,4.48036e-16
422.000,4.42063e-16
424.000,4.33285e-16
426.000,4.22669e-16
428.000,4.06926e-16
430.000,3.87703e-16
432.000,3.56517e-16
434.000,3.28995e-16
436.000,3.40184e-16
438.000,3.60599e-16
440.000,3.67354e-16
442.000,3.68350e-16
444.000,3.66239e-16
446.000,3.63658e-16
448.000,3.58565e-16
450.000,3.51644e-16
452.000,3.47238e-16
454.000,3.40564e-16
456.000,3.35977e-16
458.000,3.31659e-16
460.000,3.24456e-16
462.000,3.20019e-16
464.000,3.14293e-16
466.000,3.08930e-16
468.000,3.03600e-16
470.000,2.97850e-16
472.000,2.92756e-16
474.000,2.88313e-16
476.000,2.82701e-16
478.000,2.75578e-16
480.000,2.65609e-16
482.000,2.51560e-16
484.000,2.32164e-16
486.000,2.15186e-16
488.000,2.21664e-16
490.000,2.33504e-16
492.000,2.41148e-16
494.000,2.41747e-16
496.000,2.40991e-16
498.000,2.38047e-16
500.000,2.35075e-16
502.000,2.29504e-16
504.000,2.29044e-16
506.000,2.25825e-16
508.000,2.22370e-16
510.000,2.19505e-16
512.000,2.16147e-16
514.000,2.13224e-16
516.000,2.08922e-16
518.000,2.06507e-16
520.000,2.04051e-16
522.000,2.01506e-16
524.000,1.99965e-16
526.000,1.96523e-16
528.000,1.93212e-16
530.000,1.89489e-16
532.000,1.87713e-16
534.000,1.85386e-16
536.000,1.77657e-16
538.000,1.78589e-16
540.000,1.76486e-16
542.000,1.73344e-16
544.000,1.70505e-16
546.000,1.68831e-16
548.000,1.69026e-16
550.000,1.67658e-16
552.000,1.62310e-16
554.000,1.59830e-16
556.000,1.58137e-16
558.000,1.55217e-16
560.000,1.52867e-16
562.000,1.51338e-16
564.000,1.48577e-16
566.000,1.47831e-16
568.000,1.45796e-16
570.000,1.43665e-16
572.000,1.42301e-16
574.000,1.40007e-16
576.000,1.38249e-16
578.000,1.35871e-16
580.000,1.34182e-16
582.000,1.32226e-16
584.000,1.30098e-16
586.000,1.28469e-16
588.000,1.27266e-16
590.000,1.25152e-16
592.000,1.23821e-16
594.000,1.22049e-16
596.000,1.20720e-16
598.000,1.19367e-16
600.000,1.17712e-16
602.000,1.15923e-16
604.000,1.14603e-16
606.000,1.12905e-16
608.000,1.12447e-16
610.000,1.11028e-16
612.000,1.09119e-16
614.000,1.08625e-16
616.000,1.06815e-16
618.000,1.05128e-16
620.000,1.04012e-16
622.000,1.02857e-16
624.000,1.01292e-16
626.000,1.00060e-16
628.000,9.85988e-17
630.000,9.68639e-17
632.000,9.60030e-17
634.000,9.46885e-17
636.000,9.43058e-17
638.000,9.28210e-17
640.000,9.10962e-17
642.000,9.00516e-17
644.000,8.87984e-17
646.000,8.82482e-17
648.000,8.60844e-17
650.000,8.32300e-17
652.000,8.14077e-17
654.000,7.62684e-17
656.000,7.15573e-17
658.000,7.25942e-17
660.000,7.66339e-17
662.000,7.79729e-17
664.000,7.81827e-17
666.000,7.75045e-17
668.000,7.58930e-17
670.000,7.38343e-17
672.000,7.39890e-17
674.000,7.29899e-17
676.000,7.42970e-17
678.000,7.39925e-17
680.000,7.24144e-17
682.000,7.15321e-17
684.000,7.11405e-17
686.000,7.06475e-17
688.000,6.92843e-17
690.000,6.83106e-17
692.000,6.72261e-17
694.000,6.78827e-17
696.000,6.66390e-17
698.000,6.59942e-17
700.000,6.54697e-17
702.000,6.42267e-17
704.000,6.35371e-17
706.000,6.31870e-17
708.000,6.29187e-17
710.000,6.07605e-17
712.000,6.08393e-17
714.000,6.07521e-17
716.000,5.93688e-17
718.000,5.85054e-17
720.000,5.75141e-17
722.000,5.75507e-17
724.000,5.69820e-17
726.000,5.64096e-17
728.000,5.58860e-17
730.000,5.49307e-17
732.000,5.52508e-17
734.000,5.45007e-17
736.000,5.33927e-17
738.000,5.29647e-17
740.000,5.13901e-17
742.000,5.11694e-17
744.000,5.11968e-17
746.000,5.04671e-17
748.000,5.14094e-17
750.000,5.04337e-17
752.000,4.93933e-17
754.000,4.87007e-17
756.000,4.88895e-17
758.000,4.79857e-17
760.000,4.73723e-17
762.000,4.70933e-17
764.000,4.69479e-17
766.000,4.65133e-17
768.000,4.62104e-17
770.000,4.53730e-17
772.000,4.49800e-17
774.000,4.46318e-17
776.000,4.39836e-17
778.000,4.39096e-17
780.000,4.34874e-17
782.000,4.28382e-17
784.000,4.21079e-17
786.000,4.18688e-17
788.000,4.06213e-17
790.000,4.11392e-17
792.000,4.04187e-17
794.000,3.97684e-17
796.000,4.34640e-17
798.000,4.00238e-17
800.000,3.93703e-17
802.000,3.90224e-17
804.000,3.86302e-17
806.000,3.72757e-17
808.000,3.72854e-17
810.000,3.63539e-17
812.000,3.62390e-17
814.000,3.62583e-17
816.000,3.56391e-17
818.000,3.56920e-17
820.000,3.52028e-17
822.000,3.41381e-17
824.000,3.43640e-17
826.000,3.37635e-17
828.000,3.30919e-17
830.000,3.32167e-17
832.000,3.33381e-17
834.000,3.42934e-17
836.000,3.22286e-17
838.000,3.31005e-17
840.000,3.33702e-17
842.000,3.23931e-17
844.000,3.19270e-17
846.000,3.05149e-17
848.000,3.01004e-17
850.000,3.09023e-17
852.000,2.90625e-17
854.000,2.99301e-17
856.000,2.94477e-17
858.000,2.92121e-17
860.000,2.85528e-17
862.000,2.99023e-17
864.000,2.94376e-17
866.000,2.77183e-17
868.000,2.76222e-17
870.000,2.81789e-17
872.000,2.82173e-17
874.000,2.83921e-17
876.000,2.79346e-17
878.000,2.75125e-17
880.000,2.38917e-17
882.000,2.35084e-17
884.000,2.63053e-17
886.000,2.81975e-17
888.000,2.81575e-17
890.000,2.49140e-17
892.000,2.36746e-17
894.000,2.39878e-17
896.000,2.46730e-17
898.000,2.44708e-17
900.000,2.41199e-17
902.000,2.46918e-17
904.000,2.23252e-17
906.000,2.27640e-17
908.000,2.39782e-17
910.000,2.41795e-17
912.000,2.34804e-17
914.000,2.32803e-17
916.000,2.30811e-17
918.000,2.28828e-17
920.000,2.26871e-17
922.000,2.24978e-17
924.000,2.23117e-17
926.000,2.21295e-17
928.000,2.19524e-17
930.000,2.17770e-17
932.000,2.16019e-17
934.000,2.14269e-17
936.000,2.12518e-17
938.000,2.10769e-17
940.000,2.09019e-17
942.000,2.07262e-17
944.000,2.05496e-17
946.000,2.03720e-17
948.000,2.01930e-17
950.000,2.00144e-17
952.000,1.98405e-17
954.000,1.96794e-17
956.000,1.95240e-17
958.000,1.93786e-17
960.000,1.92423e-17
962.000,1.91072e-17
964.000,1.89709e-17
966.000,1.88327e-17
968.000,1.86929e-17
970.000,1.85520e-17
972.000,1.84102e-17
974.000,1.82680e-17
976.000,1.81253e-17
978.000,1.79823e-17
980.000,1.78389e-17
982.000,1.76949e-17
984.000,1.75500e-17
986.000,1.74038e-17
988.000,1.72559e-17
990.000,1.71054e-17
992.000,1.69511e-17
994.000,1.67922e-17
996.000,1.66267e-17
998.000,1.64539e-17
1000.00,1.62737e-17
1002.00,1.60987e-17
1004.00,1.59552e-17
1006.00,1.58357e-17
1008.00,1.57414e-17
1010.00,1.56724e-17
1012.00,1.56050e-17
1014.00,1.55303e-17
1016.00,1.54473e-17
1018.00,1.53576e-17
1020.00,1.52628e-17
