wave,flux,fluxerr
300.00000,1.3618353e-17,1.2467920e-18
300.10000,1.2946155e-17,1.2467920e-18
300.20000,1.2405492e-17,1.2467920e-18
300.30000,1.2071778e-17,1.2467920e-18
300.40000,1.1979475e-17,1.2467920e-18
300.50000,1.2123607e-17,1.2467920e-18
300.60000,1.2471820e-17,1.2467920e-18
300.70000,1.2978372e-17,1.2467920e-18
300.80000,1.3592445e-17,1.2467920e-18
300.90000,1.4258236e-17,1.2467920e-18
301.00000,1.4910239e-17,1.2467920e-18
301.10000,1.5470466e-17,1.2467920e-18
301.20000,1.5853623e-17,1.2467920e-18
301.30000,1.5982057e-17,1.2467920e-18
301.40000,1.5807013e-17,1.2467920e-18
301.50000,1.5328816e-17,1.2467920e-18
301.60000,1.4607666e-17,1.2467920e-18
301.70000,1.3759208e-17,1.2467920e-18
301.80000,1.2934044e-17,1.2467920e-18
301.90000,1.2286164e-17,1.2467920e-18
302.00000,1.1939507e-17,1.2467920e-18
302.10000,1.1962762e-17,1.2467920e-18
302.20000,1.2359524e-17,1.2467920e-18
302.30000,1.3075241e-17,1.2467920e-18
302.40000,1.4016731e-17,1.2467920e-18
302.50000,1.5076656e-17,1.2467920e-18
302.60000,1.6155336e-17,1.2467920e-18
302.70000,1.7174898e-17,1.2467920e-18
302.80000,1.8084230e-17,1.2467920e-18
302.90000,1.8856091e-17,1.2467920e-18
303.00000,1.9479551e-17,1.2467920e-18
303.10000,1.9951548e-17,1.2467920e-18
303.20000,2.0271045e-17,1.2467920e-18
303.30000,2.0437803e-17,1.2467920e-18
303.40000,2.0455451e-17,1.2467920e-18
303.50000,2.0336269e-17,1.2467920e-18
303.60000,2.0104143e-17,1.2467920e-18
303.70000,1.9793276e-17,1.2467920e-18
303.80000,1.9442769e-17,1.2467920e-18
303.90000,1.9089592e-17,1.2467920e-18
304.00000,1.8763183e-17,1.2467920e-18
304.10000,1.8483825e-17,1.2467920e-18
304.20000,1.8264848e-17,1.2467920e-18
304.30000,1.8116931e-17,1.2467920e-18
304.40000,1.8052003e-17,1.2467920e-18
304.50000,1.8084414e-17,1.2467920e-18
304.60000,1.8227941e-17,1.2467920e-18
304.70000,1.8488700e-17,1.2467920e-18
304.80000,1.8855911e-17,1.2467920e-18
304.90000,1.9294344e-17,1.2467920e-18
305.00000,1.9742999e-17,1.2467920e-18
305.10000,2.0123462e-17,1.2467920e-18
305.20000,2.0358131e-17,1.2467920e-18
305.30000,2.0394117e-17,1.2467920e-18
305.40000,2.0224995e-17,1.2467920e-18
305.50000,1.9901478e-17,1.2467920e-18
305.60000,1.9524750e-17,1.2467920e-18
305.70000,1.9222163e-17,1.2467920e-18
305.80000,1.9112170e-17,1.2467920e-18
305.90000,1.9270593e-17,1.2467920e-18
306.00000,1.9710701e-17,1.2467920e-18
306.10000,2.0384414e-17,1.2467920e-18
306.20000,2.1203158e-17,1.2467920e-18
306.30000,2.2068731e-17,1.2467920e-18
306.40000,2.2900942e-17,1.2467920e-18
306.50000,2.3651669e-17,1.2467920e-18
306.60000,2.4302470e-17,1.2467920e-18
306.70000,2.4851034e-17,1.2467920e-18
306.80000,2.5296073e-17,1.2467920e-18
306.90000,2.5629020e-17,1.2467920e-18
307.00000,2.5835436e-17,1.2467920e-18
307.10000,2.5902964e-17,1.2467920e-18
307.20000,2.5829636e-17,1.2467920e-18
307.30000,2.5627554e-17,1.2467920e-18
307.40000,2.5320944e-17,1.2467920e-18
307.50000,2.4941198e-17,1.2467920e-18
307.60000,2.4522480e-17,1.2467920e-18
307.70000,2.4099487e-17,1.2467920e-18
307.80000,2.3705970e-17,1.2467920e-18
307.90000,2.3371150e-17,1.2467920e-18
308.00000,2.3112530e-17,1.2467920e-18
308.10000,2.2927022e-17,1.2467920e-18
308.20000,2.2785382e-17,1.2467920e-18
308.30000,2.2635277e-17,1.2467920e-18
308.40000,2.2415014e-17,1.2467920e-18
308.50000,2.2074528e-17,1.2467920e-18
308.60000,2.1595565e-17,1.2467920e-18
308.70000,2.1001922e-17,1.2467920e-18
308.80000,2.0354084e-17,1.2467920e-18
308.90000,1.9729229e-17,1.2467920e-18
309.00000,1.9194168e-17,1.2467920e-18
309.10000,1.8782291e-17,1.2467920e-18
309.20000,1.8484318e-17,1.2467920e-18
309.30000,1.8257095e-17,1.2467920e-18
309.40000,1.8047224e-17,1.2467920e-18
309.50000,1.7820091e-17,1.2467920e-18
309.60000,1.7582480e-17,1.2467920e-18
309.70000,1.7389561e-17,1.2467920e-18
309.80000,1.7333315e-17,1.2467920e-18
309.90000,1.7516767e-17,1.2467920e-18
310.00000,1.8023398e-17,1.2467920e-18
310.10000,1.8891981e-17,1.2467920e-18
310.20000,2.0103914e-17,1.2467920e-18
310.30000,2.1584932e-17,1.2467920e-18
310.40000,2.3218529e-17,1.2467920e-18
310.50000,2.4866094e-17,1.2467920e-18
310.60000,2.6388832e-17,1.2467920e-18
310.70000,2.7667764e-17,1.2467920e-18
310.80000,2.8619212e-17,1.2467920e-18
310.90000,2.9203631e-17,1.2467920e-18
311.00000,2.9426106e-17,1.2467920e-18
311.10000,2.9327983e-17,1.2467920e-18
311.20000,2.8971506e-17,1.2467920e-18
311.30000,2.8421990e-17,1.2467920e-18
311.40000,2.7733777e-17,1.2467920e-18
311.50000,2.6945373e-17,1.2467920e-18
311.60000,2.6085697e-17,1.2467920e-18
311.70000,2.5188302e-17,1.2467920e-18
311.80000,2.4306231e-17,1.2467920e-18
311.90000,2.3518956e-17,1.2467920e-18
312.00000,2.2925636e-17,1.2467920e-18
312.10000,2.2624568e-17,1.2467920e-18
312.20000,2.2684810e-17,1.2467920e-18
312.30000,2.3119823e-17,1.2467920e-18
312.40000,2.3873138e-17,1.2467920e-18
312.50000,2.4822601e-17,1.2467920e-18
312.60000,2.5803947e-17,1.2467920e-18
312.70000,2.6648205e-17,1.2467920e-18
312.80000,2.7222632e-17,1.2467920e-18
312.90000,2.7462921e-17,1.2467920e-18
313.00000,2.7386511e-17,1.2467920e-18
313.10000,2.7082411e-17,1.2467920e-18
313.20000,2.6680678e-17,1.2467920e-18
313.30000,2.6311570e-17,1.2467920e-18
313.40000,2.6067652e-17,1.2467920e-18
313.50000,2.5980479e-17,1.2467920e-18
313.60000,2.6017702e-17,1.2467920e-18
313.70000,2.6099426e-17,1.2467920e-18
313.80000,2.6127216e-17,1.2467920e-18
313.90000,2.6016967e-17,1.2467920e-18
314.00000,2.5727377e-17,1.2467920e-18
314.10000,2.5277620e-17,1.2467920e-18
314.20000,2.4749830e-17,1.2467920e-18
314.30000,2.4274313e-17,1.2467920e-18
314.40000,2.3998791e-17,1.2467920e-18
314.50000,2.4047641e-17,1.2467920e-18
314.60000,2.4481762e-17,1.2467920e-18
314.70000,2.5271891e-17,1.2467920e-18
314.80000,2.6295961e-17,1.2467920e-18
314.90000,2.7364044e-17,1.2467920e-18
315.00000,2.8264920e-17,1.2467920e-18
315.10000,2.8820109e-17,1.2467920e-18
315.20000,2.8927968e-17,1.2467920e-18
315.30000,2.8583848e-17,1.2467920e-18
315.40000,2.7870972e-17,1.2467920e-18
315.50000,2.6927215e-17,1.2467920e-18
315.60000,2.5900991e-17,1.2467920e-18
315.70000,2.4912045e-17,1.2467920e-18
315.80000,2.4029476e-17,1.2467920e-18
315.90000,2.3271642e-17,1.2467920e-18
316.00000,2.2624124e-17,1.2467920e-18
316.10000,2.2065977e-17,1.2467920e-18
316.20000,2.1593095e-17,1.2467920e-18
316.30000,2.1230479e-17,1.2467920e-18
316.40000,2.1030562e-17,1.2467920e-18
316.50000,2.1059929e-17,1.2467920e-18
316.60000,2.1379782e-17,1.2467920e-18
316.70000,2.2026176e-17,1.2467920e-18
316.80000,2.2994966e-17,1.2467920e-18
316.90000,2.4234837e-17,1.2467920e-18
317.00000,2.5650012e-17,1.2467920e-18
317.10000,2.7112323e-17,1.2467920e-18
317.20000,2.8480279e-17,1.2467920e-18
317.30000,2.9620975e-17,1.2467920e-18
317.40000,3.0429944e-17,1.2467920e-18
317.50000,3.0844744e-17,1.2467920e-18
317.60000,3.0850132e-17,1.2467920e-18
317.70000,3.0475214e-17,1.2467920e-18
317.80000,2.9785110e-17,1.2467920e-18
317.90000,2.8870349e-17,1.2467920e-18
318.00000,2.7836286e-17,1.2467920e-18
318.10000,2.6792959e-17,1.2467920e-18
318.20000,2.5844276e-17,1.2467920e-18
318.30000,2.5075552e-17,1.2467920e-18
318.40000,2.4540179e-17,1.2467920e-18
318.50000,2.4248671e-17,1.2467920e-18
318.60000,2.4164549e-17,1.2467920e-18
318.70000,2.4210653e-17,1.2467920e-18
318.80000,2.4286664e-17,1.2467920e-18
318.90000,2.4294968e-17,1.2467920e-18
319.00000,2.4168950e-17,1.2467920e-18
319.10000,2.3896075e-17,1.2467920e-18
319.20000,2.3528330e-17,1.2467920e-18
319.30000,2.3175037e-17,1.2467920e-18
319.40000,2.2977729e-17,1.2467920e-18
319.50000,2.3072648e-17,1.2467920e-18
319.60000,2.3551408e-17,1.2467920e-18
319.70000,2.4431994e-17,1.2467920e-18
319.80000,2.5649387e-17,1.2467920e-18
319.90000,2.7068464e-17,1.2467920e-18
320.00000,2.8514514e-17,1.2467920e-18
320.10000,2.9811586e-17,1.2467920e-18
320.20000,3.0817803e-17,1.2467920e-18
320.30000,3.1449229e-17,1.2467920e-18
320.40000,3.1688237e-17,1.2467920e-18
320.50000,3.1576801e-17,1.2467920e-18
320.60000,3.1198649e-17,1.2467920e-18
320.70000,3.0656378e-17,1.2467920e-18
320.80000,3.0049987e-17,1.2467920e-18
320.90000,2.9461812e-17,1.2467920e-18
321.00000,2.8949782e-17,1.2467920e-18
321.10000,2.8547586e-17,1.2467920e-18
321.20000,2.8268219e-17,1.2467920e-18
321.30000,2.8107530e-17,1.2467920e-18
321.40000,2.8046324e-17,1.2467920e-18
321.50000,2.8051946e-17,1.2467920e-18
321.60000,2.8081376e-17,1.2467920e-18
321.70000,2.8087157e-17,1.2467920e-18
321.80000,2.8025591e-17,1.2467920e-18
321.90000,2.7864944e-17,1.2467920e-18
322.00000,2.7591017e-17,1.2467920e-18
322.10000,2.7208620e-17,1.2467920e-18
322.20000,2.6739236e-17,1.2467920e-18
322.30000,2.6216571e-17,1.2467920e-18
322.40000,2.5681686e-17,1.2467920e-18
322.50000,2.5178426e-17,1.2467920e-18
322.60000,2.4748821e-17,1.2467920e-18
322.70000,2.4428004e-17,1.2467920e-18
322.80000,2.4239307e-17,1.2467920e-18
322.90000,2.4191283e-17,1.2467920e-18
323.00000,2.4278514e-17,1.2467920e-18
323.10000,2.4486328e-17,1.2467920e-18
323.20000,2.4797255e-17,1.2467920e-18
323.30000,2.5195741e-17,1.2467920e-18
323.40000,2.5668732e-17,1.2467920e-18
323.50000,2.6202586e-17,1.2467920e-18
323.60000,2.6779493e-17,1.2467920e-18
323.70000,2.7377023e-17,1.2467920e-18
323.80000,2.7972226e-17,1.2467920e-18
323.90000,2.8548360e-17,1.2467920e-18
324.00000,2.9100337e-17,1.2467920e-18
324.10000,2.9635719e-17,1.2467920e-18
324.20000,3.0170986e-17,1.2467920e-18
324.30000,3.0725653e-17,1.2467920e-18
324.40000,3.1317562e-17,1.2467920e-18
324.50000,3.1960980e-17,1.2467920e-18
324.60000,3.2666560e-17,1.2467920e-18
324.70000,3.3440797e-17,1.2467920e-18
324.80000,3.4283403e-17,1.2467920e-18
324.90000,3.5183206e-17,1.2467920e-18
325.00000,3.6114855e-17,1.2467920e-18
325.10000,3.7038627e-17,1.2467920e-18
325.20000,3.7904094e-17,1.2467920e-18
325.30000,3.8656745e-17,1.2467920e-18
325.40000,3.9245915e-17,1.2467920e-18
325.50000,3.9632673e-17,1.2467920e-18
325.60000,3.9796776e-17,1.2467920e-18
325.70000,3.9741746e-17,1.2467920e-18
325.80000,3.9496705e-17,1.2467920e-18
325.90000,3.9113558e-17,1.2467920e-18
326.00000,3.8659103e-17,1.2467920e-18
326.10000,3.8202967e-17,1.2467920e-18
326.20000,3.7804100e-17,1.2467920e-18
326.30000,3.7499026e-17,1.2467920e-18
326.40000,3.7295063e-17,1.2467920e-18
326.50000,3.7171044e-17,1.2467920e-18
326.60000,3.7086575e-17,1.2467920e-18
326.70000,3.6998423e-17,1.2467920e-18
326.80000,3.6879462e-17,1.2467920e-18
326.90000,3.6733236e-17,1.2467920e-18
327.00000,3.6597414e-17,1.2467920e-18
327.10000,3.6533284e-17,1.2467920e-18
327.20000,3.6604552e-17,1.2467920e-18
327.30000,3.6853970e-17,1.2467920e-18
327.40000,3.7287494e-17,1.2467920e-18
327.50000,3.7871940e-17,1.2467920e-18
327.60000,3.8545593e-17,1.2467920e-18
327.70000,3.9235705e-17,1.2467920e-18
327.80000,3.9875083e-17,1.2467920e-18
327.90000,4.0412358e-17,1.2467920e-18
328.00000,4.0814770e-17,1.2467920e-18
328.10000,4.1065712e-17,1.2467920e-18
328.20000,4.1160427e-17,1.2467920e-18
328.30000,4.1102438e-17,1.2467920e-18
328.40000,4.0901771e-17,1.2467920e-18
328.50000,4.0574961e-17,1.2467920e-18
328.60000,4.0146107e-17,1.2467920e-18
328.70000,3.9647815e-17,1.2467920e-18
328.80000,3.9120499e-17,1.2467920e-18
328.90000,3.8608706e-17,1.2467920e-18
329.00000,3.8154283e-17,1.2467920e-18
329.10000,3.7788140e-17,1.2467920e-18
329.20000,3.7523918e-17,1.2467920e-18
329.30000,3.7356747e-17,1.2467920e-18
329.40000,3.7267996e-17,1.2467920e-18
329.50000,3.7233506e-17,1.2467920e-18
329.60000,3.7230586e-17,1.2467920e-18
329.70000,3.7239658e-17,1.2467920e-18
329.80000,3.7240122e-17,1.2467920e-18
329.90000,3.7204253e-17,1.2467920e-18
330.00000,3.7095104e-17,1.2467920e-18
330.10000,3.6872641e-17,1.2467920e-18
330.20000,3.6507608e-17,1.2467920e-18
330.30000,3.5997722e-17,1.2467920e-18
330.40000,3.5378461e-17,1.2467920e-18
330.50000,3.4722177e-17,1.2467920e-18
330.60000,3.4123519e-17,1.2467920e-18
330.70000,3.3674384e-17,1.2467920e-18
330.80000,3.3435763e-17,1.2467920e-18
330.90000,3.3415776e-17,1.2467920e-18
331.00000,3.3562182e-17,1.2467920e-18
331.10000,3.3773600e-17,1.2467920e-18
331.20000,3.3927223e-17,1.2467920e-18
331.30000,3.3914295e-17,1.2467920e-18
331.40000,3.3670825e-17,1.2467920e-18
331.50000,3.3192533e-17,1.2467920e-18
331.60000,3.2529808e-17,1.2467920e-18
331.70000,3.1767457e-17,1.2467920e-18
331.80000,3.1000497e-17,1.2467920e-18
331.90000,3.0317417e-17,1.2467920e-18
332.00000,2.9795992e-17,1.2467920e-18
332.10000,2.9507753e-17,1.2467920e-18
332.20000,2.9521179e-17,1.2467920e-18
332.30000,2.9894737e-17,1.2467920e-18
332.40000,3.0658422e-17,1.2467920e-18
332.50000,3.1791735e-17,1.2467920e-18
332.60000,3.3210752e-17,1.2467920e-18
332.70000,3.4773955e-17,1.2467920e-18
332.80000,3.6307482e-17,1.2467920e-18
332.90000,3.7641114e-17,1.2467920e-18
333.00000,3.8641953e-17,1.2467920e-18
333.10000,3.9235255e-17,1.2467920e-18
333.20000,3.9408660e-17,1.2467920e-18
333.30000,3.9202670e-17,1.2467920e-18
333.40000,3.8693408e-17,1.2467920e-18
333.50000,3.7973154e-17,1.2467920e-18
333.60000,3.7131993e-17,1.2467920e-18
333.70000,3.6242380e-17,1.2467920e-18
333.80000,3.5348297e-17,1.2467920e-18
333.90000,3.4461123e-17,1.2467920e-18
334.00000,3.3563885e-17,1.2467920e-18
334.10000,3.2623679e-17,1.2467920e-18
334.20000,3.1609340e-17,1.2467920e-18
334.30000,3.0509338e-17,1.2467920e-18
334.40000,2.9344394e-17,1.2467920e-18
334.50000,2.8170590e-17,1.2467920e-18
334.60000,2.7071217e-17,1.2467920e-18
334.70000,2.6138378e-17,1.2467920e-18
334.80000,2.5448087e-17,1.2467920e-18
334.90000,2.5034970e-17,1.2467920e-18
335.00000,2.4874320e-17,1.2467920e-18
335.10000,2.4879182e-17,1.2467920e-18
335.20000,2.4917277e-17,1.2467920e-18
335.30000,2.4846709e-17,1.2467920e-18
335.40000,2.4561802e-17,1.2467920e-18
335.50000,2.4034151e-17,1.2467920e-18
335.60000,2.3332395e-17,1.2467920e-18
335.70000,2.2609417e-17,1.2467920e-18
335.80000,2.2056859e-17,1.2467920e-18
335.90000,2.1840010e-17,1.2467920e-18
336.00000,2.2035638e-17,1.2467920e-18
336.10000,2.2596325e-17,1.2467920e-18
336.20000,2.3356226e-17,1.2467920e-18
336.30000,2.4077864e-17,1.2467920e-18
336.40000,2.4524211e-17,1.2467920e-18
336.50000,2.4531174e-17,1.2467920e-18
336.60000,2.4056269e-17,1.2467920e-18
336.70000,2.3188810e-17,1.2467920e-18
336.80000,2.2120910e-17,1.2467920e-18
336.90000,2.1091387e-17,1.2467920e-18
337.00000,2.0321912e-17,1.2467920e-18
337.10000,1.9964690e-17,1.2467920e-18
337.20000,2.0074902e-17,1.2467920e-18
337.30000,2.0611886e-17,1.2467920e-18
337.40000,2.1464266e-17,1.2467920e-18
337.50000,2.2488397e-17,1.2467920e-18
337.60000,2.3547736e-17,1.2467920e-18
337.70000,2.4542571e-17,1.2467920e-18
337.80000,2.5423738e-17,1.2467920e-18
337.90000,2.6189270e-17,1.2467920e-18
338.00000,2.6867770e-17,1.2467920e-18
338.10000,2.7495743e-17,1.2467920e-18
338.20000,2.8096987e-17,1.2467920e-18
338.30000,2.8670456e-17,1.2467920e-18
338.40000,2.9189557e-17,1.2467920e-18
338.50000,2.9612147e-17,1.2467920e-18
338.60000,2.9897739e-17,1.2467920e-18
338.70000,3.0026910e-17,1.2467920e-18
338.80000,3.0017289e-17,1.2467920e-18
338.90000,2.9930645e-17,1.2467920e-18
339.00000,2.9866972e-17,1.2467920e-18
339.10000,2.9944721e-17,1.2467920e-18
339.20000,3.0271021e-17,1.2467920e-18
339.30000,3.0910192e-17,1.2467920e-18
339.40000,3.1860694e-17,1.2467920e-18
339.50000,3.3048555e-17,1.2467920e-18
339.60000,3.4339969e-17,1.2467920e-18
339.70000,3.5569466e-17,1.2467920e-18
339.80000,3.6575385e-17,1.2467920e-18
339.90000,3.7232888e-17,1.2467920e-18
340.00000,3.7476433e-17,1.2467920e-18
340.10000,3.7307366e-17,1.2467920e-18
340.20000,3.6786555e-17,1.2467920e-18
340.30000,3.6015413e-17,1.2467920e-18
340.40000,3.5110604e-17,1.2467920e-18
340.50000,3.4178173e-17,1.2467920e-18
340.60000,3.3292513e-17,1.2467920e-18
340.70000,3.2484893e-17,1.2467920e-18
340.80000,3.1744975e-17,1.2467920e-18
340.90000,3.1036144e-17,1.2467920e-18
341.00000,3.0321140e-17,1.2467920e-18
341.10000,2.9589508e-17,1.2467920e-18
341.20000,2.8875431e-17,1.2467920e-18
341.30000,2.8256258e-17,1.2467920e-18
341.40000,2.7829225e-17,1.2467920e-18
341.50000,2.7673987e-17,1.2467920e-18
341.60000,2.7816533e-17,1.2467920e-18
341.70000,2.8211273e-17,1.2467920e-18
341.80000,2.8750932e-17,1.2467920e-18
341.90000,2.9301525e-17,1.2467920e-18
342.00000,2.9748107e-17,1.2467920e-18
342.10000,3.0031929e-17,1.2467920e-18
342.20000,3.0163624e-17,1.2467920e-18
342.30000,3.0207897e-17,1.2467920e-18
342.40000,3.0247753e-17,1.2467920e-18
342.50000,3.0344633e-17,1.2467920e-18
342.60000,3.0511543e-17,1.2467920e-18
342.70000,3.0709300e-17,1.2467920e-18
342.80000,3.0865062e-17,1.2467920e-18
342.90000,3.0902531e-17,1.2467920e-18
343.00000,3.0769060e-17,1.2467920e-18
343.10000,3.0448071e-17,1.2467920e-18
343.20000,2.9953752e-17,1.2467920e-18
343.30000,2.9314313e-17,1.2467920e-18
343.40000,2.8555421e-17,1.2467920e-18
343.50000,2.7694110e-17,1.2467920e-18
343.60000,2.6746554e-17,1.2467920e-18
343.70000,2.5744620e-17,1.2467920e-18
343.80000,2.4750772e-17,1.2467920e-18
343.90000,2.3861455e-17,1.2467920e-18
344.00000,2.3194865e-17,1.2467920e-18
344.10000,2.2866603e-17,1.2467920e-18
344.20000,2.2961971e-17,1.2467920e-18
344.30000,2.3514479e-17,1.2467920e-18
344.40000,2.4496802e-17,1.2467920e-18
344.50000,2.5825580e-17,1.2467920e-18
344.60000,2.7377291e-17,1.2467920e-18
344.70000,2.9010323e-17,1.2467920e-18
344.80000,3.0587857e-17,1.2467920e-18
344.90000,3.1996685e-17,1.2467920e-18
345.00000,3.3158361e-17,1.2467920e-18
345.10000,3.4031332e-17,1.2467920e-18
345.20000,3.4605656e-17,1.2467920e-18
345.30000,3.4894405e-17,1.2467920e-18
345.40000,3.4926336e-17,1.2467920e-18
345.50000,3.4742356e-17,1.2467920e-18
345.60000,3.4394738e-17,1.2467920e-18
345.70000,3.3945513e-17,1.2467920e-18
345.80000,3.3460819e-17,1.2467920e-18
345.90000,3.3001094e-17,1.2467920e-18
346.00000,3.2610733e-17,1.2467920e-18
346.10000,3.2312253e-17,1.2467920e-18
346.20000,3.2107948e-17,1.2467920e-18
346.30000,3.1987575e-17,1.2467920e-18
346.40000,3.1936894e-17,1.2467920e-18
346.50000,3.1941603e-17,1.2467920e-18
346.60000,3.1984986e-17,1.2467920e-18
346.70000,3.2043028e-17,1.2467920e-18
346.80000,3.2084196e-17,1.2467920e-18
346.90000,3.2079381e-17,1.2467920e-18
347.00000,3.2021043e-17,1.2467920e-18
347.10000,3.1942922e-17,1.2467920e-18
347.20000,3.1927846e-17,1.2467920e-18
347.30000,3.2094516e-17,1.2467920e-18
347.40000,3.2563650e-17,1.2467920e-18
347.50000,3.3414828e-17,1.2467920e-18
347.60000,3.4651619e-17,1.2467920e-18
347.70000,3.6190304e-17,1.2467920e-18
347.80000,3.7877650e-17,1.2467920e-18
347.90000,3.9530492e-17,1.2467920e-18
348.00000,4.0980954e-17,1.2467920e-18
348.10000,4.2110179e-17,1.2467920e-18
348.20000,4.2860561e-17,1.2467920e-18
348.30000,4.3227482e-17,1.2467920e-18
348.40000,4.3240501e-17,1.2467920e-18
348.50000,4.2946439e-17,1.2467920e-18
348.60000,4.2402219e-17,1.2467920e-18
348.70000,4.1677229e-17,1.2467920e-18
348.80000,4.0858272e-17,1.2467920e-18
348.90000,4.0048812e-17,1.2467920e-18
349.00000,3.9358334e-17,1.2467920e-18
349.10000,3.8884335e-17,1.2467920e-18
349.20000,3.8694324e-17,1.2467920e-18
349.30000,3.8815527e-17,1.2467920e-18
349.40000,3.9235656e-17,1.2467920e-18
349.50000,3.9912304e-17,1.2467920e-18
349.60000,4.0784746e-17,1.2467920e-18
349.70000,4.1782420e-17,1.2467920e-18
349.80000,4.2828307e-17,1.2467920e-18
349.90000,4.3839910e-17,1.2467920e-18
350.00000,4.4732411e-17,1.2467920e-18
350.10000,4.5426862e-17,1.2467920e-18
350.20000,4.5862242e-17,1.2467920e-18
350.30000,4.6006760e-17,1.2467920e-18
350.40000,4.5863125e-17,1.2467920e-18
350.50000,4.5465092e-17,1.2467920e-18
350.60000,4.4866881e-17,1.2467920e-18
350.70000,4.4130701e-17,1.2467920e-18
350.80000,4.3318366e-17,1.2467920e-18
350.90000,4.2490200e-17,1.2467920e-18
351.00000,4.1709439e-17,1.2467920e-18
351.10000,4.1045788e-17,1.2467920e-18
351.20000,4.0570844e-17,1.2467920e-18
351.30000,4.0341987e-17,1.2467920e-18
351.40000,4.0378545e-17,1.2467920e-18
351.50000,4.0640651e-17,1.2467920e-18
351.60000,4.1022927e-17,1.2467920e-18
351.70000,4.1370474e-17,1.2467920e-18
351.80000,4.1515463e-17,1.2467920e-18
351.90000,4.1323749e-17,1.2467920e-18
352.00000,4.0736385e-17,1.2467920e-18
352.10000,3.9792537e-17,1.2467920e-18
352.20000,3.8626544e-17,1.2467920e-18
352.30000,3.7439865e-17,1.2467920e-18
352.40000,3.6455760e-17,1.2467920e-18
