wave,flux,fluxerr
1350.5642,1.0959718e-11,0.0000000
1351.5643,1.0930919e-11,0.0000000
1352.5644,1.0904642e-11,0.0000000
1353.5644,1.0875413e-11,0.0000000
1354.5645,1.0849586e-11,0.0000000
1355.5646,1.0818707e-11,0.0000000
1356.5647,1.0795141e-11,0.0000000
1357.5648,1.0764430e-11,0.0000000
1358.5648,1.0740568e-11,0.0000000
1359.5649,1.0713840e-11,0.0000000
1360.5650,1.0685321e-11,0.0000000
1361.5651,1.0659354e-11,0.0000000
1362.5652,1.0633830e-11,0.0000000
1363.5652,1.0604807e-11,0.0000000
1364.5653,1.0579489e-11,0.0000000
1365.5654,1.0554424e-11,0.0000000
1366.5655,1.0525581e-11,0.0000000
1367.5656,1.0501043e-11,0.0000000
1368.5657,1.0476158e-11,0.0000000
1369.5657,1.0447345e-11,0.0000000
1370.5658,1.0422894e-11,0.0000000
1371.5659,1.0396861e-11,0.0000000
1372.5660,1.0373094e-11,0.0000000
1373.5661,1.0342492e-11,0.0000000
1374.5662,1.0319120e-11,0.0000000
1375.5663,1.0295459e-11,0.0000000
1376.5663,1.0269501e-11,0.0000000
1377.5664,1.0240971e-11,0.0000000
1378.5665,1.0217031e-11,0.0000000
1379.5666,1.0192344e-11,0.0000000
1380.5667,1.0168947e-11,0.0000000
1381.5668,1.0140361e-11,0.0000000
1382.5669,1.0114103e-11,0.0000000
1383.5670,1.0091352e-11,0.0000000
1384.5671,1.0066982e-11,0.0000000
1385.5671,1.0043654e-11,0.0000000
1386.5672,1.0015682e-11,0.0000000
1387.5673,9.9908350e-12,0.0000000
1388.5674,9.9682525e-12,0.0000000
1389.5675,9.9445299e-12,0.0000000
1390.5676,9.9204819e-12,0.0000000
1391.5677,9.8954215e-12,0.0000000
1392.5678,9.8681215e-12,0.0000000
1393.5679,9.8454151e-12,0.0000000
1394.5680,9.8228407e-12,0.0000000
1395.5681,9.7992640e-12,0.0000000
1396.5682,9.7750920e-12,0.0000000
1397.5683,9.7505151e-12,0.0000000
1398.5684,9.7253137e-12,0.0000000
1399.5685,9.7015252e-12,0.0000000
1400.5686,9.6778386e-12,0.0000000
1401.5687,9.6553475e-12,0.0000000
1402.5688,9.6327144e-12,0.0000000
1403.5689,9.6097306e-12,0.0000000
1404.5690,9.5859758e-12,0.0000000
1405.5691,9.5615527e-12,0.0000000
1406.5692,9.5400498e-12,0.0000000
1407.5693,9.5160749e-12,0.0000000
1408.5694,9.4895752e-12,0.0000000
1409.5695,9.4653926e-12,0.0000000
1410.5696,9.4445508e-12,0.0000000
1411.5697,9.4206040e-12,0.0000000
1412.5698,9.3996553e-12,0.0000000
1413.5699,9.3751084e-12,0.0000000
1414.5700,9.3534409e-12,0.0000000
1415.5701,9.3288409e-12,0.0000000
1416.5702,9.3083380e-12,0.0000000
1417.5703,9.2849689e-12,0.0000000
1418.5704,9.2629870e-12,0.0000000
1419.5705,9.2403999e-12,0.0000000
1420.5706,9.2176540e-12,0.0000000
1421.5707,9.1960636e-12,0.0000000
1422.5708,9.1744403e-12,0.0000000
1423.5709,9.1528465e-12,0.0000000
1424.5711,9.1311089e-12,0.0000000
1425.5712,9.1092593e-12,0.0000000
1426.5713,9.0866313e-12,0.0000000
1427.5714,9.0640336e-12,0.0000000
1428.5715,9.0424406e-12,0.0000000
1429.5716,9.0210941e-12,0.0000000
1430.5717,8.9996744e-12,0.0000000
1431.5718,8.9783656e-12,0.0000000
1432.5719,8.9569228e-12,0.0000000
1433.5720,8.9360310e-12,0.0000000
1434.5722,8.9146842e-12,0.0000000
1435.5723,8.8933016e-12,0.0000000
1436.5724,8.8719383e-12,0.0000000
1437.5725,8.8507221e-12,0.0000000
1438.5726,8.8293639e-12,0.0000000
1439.5727,8.8089848e-12,0.0000000
1440.5728,8.7867778e-12,0.0000000
1441.5729,8.7666661e-12,0.0000000
1442.5731,8.7448183e-12,0.0000000
1443.5732,8.7251062e-12,0.0000000
1444.5733,8.7028656e-12,0.0000000
1445.5734,8.6831578e-12,0.0000000
1446.5735,8.6634902e-12,0.0000000
1447.5736,8.6416168e-12,0.0000000
1448.5738,8.6219651e-12,0.0000000
1449.5739,8.6008847e-12,0.0000000
1450.5740,8.5806331e-12,0.0000000
1451.5741,8.5600379e-12,0.0000000
1452.5742,8.5397953e-12,0.0000000
1453.5743,8.5197619e-12,0.0000000
1454.5745,8.4996768e-12,0.0000000
1455.5746,8.4795607e-12,0.0000000
1456.5747,8.4593466e-12,0.0000000
1457.5748,8.4392289e-12,0.0000000
1458.5749,8.4194284e-12,0.0000000
1459.5751,8.3995700e-12,0.0000000
1460.5752,8.3799992e-12,0.0000000
1461.5753,8.3599921e-12,0.0000000
1462.5754,8.3404271e-12,0.0000000
1463.5756,8.3205559e-12,0.0000000
1464.5757,8.3013653e-12,0.0000000
1465.5758,8.2817285e-12,0.0000000
1466.5759,8.2623828e-12,0.0000000
1467.5760,8.2428193e-12,0.0000000
1468.5762,8.2234780e-12,0.0000000
1469.5763,8.2043522e-12,0.0000000
1470.5764,8.1848900e-12,0.0000000
1471.5765,8.1656886e-12,0.0000000
1472.5767,8.1466042e-12,0.0000000
1473.5768,8.1277057e-12,0.0000000
1474.5769,8.1086119e-12,0.0000000
1475.5770,8.0899193e-12,0.0000000
1476.5772,8.0711049e-12,0.0000000
1477.5773,8.0520848e-12,0.0000000
1478.5774,8.0331872e-12,0.0000000
1479.5776,8.0143775e-12,0.0000000
1480.5777,7.9959853e-12,0.0000000
1481.5778,7.9770181e-12,0.0000000
1482.5779,7.9588646e-12,0.0000000
1483.5781,7.9403475e-12,0.0000000
1484.5782,7.9216444e-12,0.0000000
1485.5783,7.9034184e-12,0.0000000
1486.5785,7.8849553e-12,0.0000000
1487.5786,7.8668459e-12,0.0000000
1488.5787,7.8485288e-12,0.0000000
1489.5788,7.8302856e-12,0.0000000
1490.5790,7.8121366e-12,0.0000000
1491.5791,7.7943462e-12,0.0000000
1492.5792,7.7759568e-12,0.0000000
1493.5794,7.7581272e-12,0.0000000
1494.5795,7.7403710e-12,0.0000000
1495.5796,7.7222563e-12,0.0000000
1496.5798,7.7042562e-12,0.0000000
1497.5799,7.6865518e-12,0.0000000
1498.5800,7.6688348e-12,0.0000000
1499.5802,7.6511276e-12,0.0000000
1500.5803,7.6334245e-12,0.0000000
1501.5804,7.6163420e-12,0.0000000
1502.5806,7.5988220e-12,0.0000000
1503.5807,7.5811876e-12,0.0000000
1504.5809,7.5635834e-12,0.0000000
1505.5810,7.5464446e-12,0.0000000
1506.5811,7.5290614e-12,0.0000000
1507.5813,7.5119095e-12,0.0000000
1508.5814,7.4945702e-12,0.0000000
1509.5815,7.4774006e-12,0.0000000
1510.5817,7.4602767e-12,0.0000000
1511.5818,7.4432226e-12,0.0000000
1512.5819,7.4264103e-12,0.0000000
1513.5821,7.4093702e-12,0.0000000
1514.5822,7.3925023e-12,0.0000000
1515.5824,7.3755897e-12,0.0000000
1516.5825,7.3589126e-12,0.0000000
1517.5826,7.3420978e-12,0.0000000
1518.5828,7.3252788e-12,0.0000000
1519.5829,7.3086318e-12,0.0000000
1520.5831,7.2919062e-12,0.0000000
1521.5832,7.2752268e-12,0.0000000
1522.5833,7.2587733e-12,0.0000000
1523.5835,7.2423795e-12,0.0000000
1524.5836,7.2258895e-12,0.0000000
1525.5838,7.2094955e-12,0.0000000
1526.5839,7.1931103e-12,0.0000000
1527.5841,7.1767942e-12,0.0000000
1528.5842,7.1604123e-12,0.0000000
1529.5843,7.1439941e-12,0.0000000
1530.5845,7.1284388e-12,0.0000000
1531.5846,7.1120754e-12,0.0000000
1532.5848,7.0958292e-12,0.0000000
1533.5849,7.0799124e-12,0.0000000
1534.5851,7.0639475e-12,0.0000000
1535.5852,7.0482247e-12,0.0000000
1536.5854,7.0321903e-12,0.0000000
1537.5855,7.0164175e-12,0.0000000
1538.5856,7.0005291e-12,0.0000000
1539.5858,6.9846972e-12,0.0000000
1540.5859,6.9690683e-12,0.0000000
1541.5861,6.9536043e-12,0.0000000
1542.5862,6.9376065e-12,0.0000000
1543.5864,6.9222169e-12,0.0000000
1544.5865,6.9064735e-12,0.0000000
1545.5867,6.8909937e-12,0.0000000
1546.5868,6.8755617e-12,0.0000000
1547.5870,6.8601643e-12,0.0000000
1548.5871,6.8447803e-12,0.0000000
1549.5873,6.8295479e-12,0.0000000
1550.5874,6.8141938e-12,0.0000000
1551.5876,6.7988703e-12,0.0000000
1552.5877,6.7837717e-12,0.0000000
1553.5879,6.7687377e-12,0.0000000
1554.5880,6.7537151e-12,0.0000000
1555.5882,6.7384362e-12,0.0000000
1556.5883,6.7233810e-12,0.0000000
1557.5885,6.7086619e-12,0.0000000
1558.5886,6.6936049e-12,0.0000000
1559.5888,6.6786876e-12,0.0000000
1560.5889,6.6637905e-12,0.0000000
1561.5891,6.6487679e-12,0.0000000
1562.5892,6.6340418e-12,0.0000000
1563.5894,6.6195783e-12,0.0000000
1564.5895,6.6047541e-12,0.0000000
1565.5897,6.5897782e-12,0.0000000
1566.5898,6.5756384e-12,0.0000000
1567.5900,6.5607712e-12,0.0000000
1568.5901,6.5465042e-12,0.0000000
1569.5903,6.5318597e-12,0.0000000
1570.5904,6.5176156e-12,0.0000000
1571.5906,6.5028656e-12,0.0000000
1572.5908,6.4886040e-12,0.0000000
1573.5909,6.4743543e-12,0.0000000
1574.5911,6.4602213e-12,0.0000000
1575.5912,6.4456097e-12,0.0000000
1576.5914,6.4314714e-12,0.0000000
1577.5915,6.4173612e-12,0.0000000
1578.5917,6.4032360e-12,0.0000000
1579.5918,6.3891710e-12,0.0000000
1580.5920,6.3752005e-12,0.0000000
1581.5922,6.3611043e-12,0.0000000
1582.5923,6.3469848e-12,0.0000000
1583.5925,6.3330807e-12,0.0000000
1584.5926,6.3196243e-12,0.0000000
1585.5928,6.3055172e-12,0.0000000
1586.5930,6.2916253e-12,0.0000000
1587.5931,6.2776485e-12,0.0000000
1588.5933,6.2642637e-12,0.0000000
1589.5934,6.2504807e-12,0.0000000
1590.5936,6.2369319e-12,0.0000000
1591.5937,6.2231747e-12,0.0000000
1592.5939,6.2097933e-12,0.0000000
1593.5941,6.1958161e-12,0.0000000
1594.5942,6.1825158e-12,0.0000000
1595.5944,6.1687077e-12,0.0000000
1596.5945,6.1557078e-12,0.0000000
1597.5947,6.1419479e-12,0.0000000
1598.5949,6.1287554e-12,0.0000000
1599.5950,6.1154954e-12,0.0000000
1600.5952,6.1017438e-12,0.0000000
1601.5954,6.0887897e-12,0.0000000
1602.5955,6.0757698e-12,0.0000000
1603.5957,6.0623328e-12,0.0000000
1604.5958,6.0494133e-12,0.0000000
1605.5960,6.0359783e-12,0.0000000
1606.5962,6.0229648e-12,0.0000000
1607.5963,6.0100516e-12,0.0000000
1608.5965,5.9971441e-12,0.0000000
1609.5967,5.9838170e-12,0.0000000
1610.5968,5.9709199e-12,0.0000000
1611.5970,5.9580342e-12,0.0000000
1612.5971,5.9450240e-12,0.0000000
1613.5973,5.9322080e-12,0.0000000
1614.5975,5.9194531e-12,0.0000000
1615.5976,5.9067527e-12,0.0000000
1616.5978,5.8940214e-12,0.0000000
1617.5980,5.8812778e-12,0.0000000
1618.5981,5.8687511e-12,0.0000000
1619.5983,5.8560780e-12,0.0000000
1620.5985,5.8432426e-12,0.0000000
1621.5986,5.8309137e-12,0.0000000
1622.5988,5.8184222e-12,0.0000000
1623.5990,5.8056704e-12,0.0000000
1624.5991,5.7934342e-12,0.0000000
1625.5993,5.7809630e-12,0.0000000
1626.5995,5.7685791e-12,0.0000000
1627.5996,5.7561243e-12,0.0000000
1628.5998,5.7439566e-12,0.0000000
1629.6000,5.7314135e-12,0.0000000
1630.6001,5.7193878e-12,0.0000000
1631.6003,5.7067598e-12,0.0000000
1632.6005,5.6948036e-12,0.0000000
1633.6007,5.6827545e-12,0.0000000
1634.6008,5.6702882e-12,0.0000000
1635.6010,5.6584738e-12,0.0000000
1636.6012,5.6460735e-12,0.0000000
1637.6013,5.6342333e-12,0.0000000
1638.6015,5.6225154e-12,0.0000000
1639.6017,5.6101845e-12,0.0000000
1640.6018,5.5984375e-12,0.0000000
1641.6020,5.5862451e-12,0.0000000
1642.6022,5.5745470e-12,0.0000000
1643.6024,5.5626894e-12,0.0000000
1644.6025,5.5509767e-12,0.0000000
1645.6027,5.5392367e-12,0.0000000
1646.6029,5.5272907e-12,0.0000000
1647.6030,5.5156052e-12,0.0000000
1648.6032,5.5039695e-12,0.0000000
1649.6034,5.4922727e-12,0.0000000
1650.6036,5.4807293e-12,0.0000000
1651.6037,5.4691178e-12,0.0000000
1652.6039,5.4574962e-12,0.0000000
1653.6041,5.4459154e-12,0.0000000
1654.6043,5.4346516e-12,0.0000000
1655.6044,5.4230427e-12,0.0000000
1656.6046,5.4114605e-12,0.0000000
1657.6048,5.4000379e-12,0.0000000
1658.6049,5.3888187e-12,0.0000000
1659.6051,5.3774330e-12,0.0000000
1660.6053,5.3658981e-12,0.0000000
1661.6055,5.3548288e-12,0.0000000
1662.6056,5.3434967e-12,0.0000000
1663.6058,5.3320902e-12,0.0000000
1664.6060,5.3211164e-12,0.0000000
1665.6062,5.3095742e-12,0.0000000
1666.6064,5.2987281e-12,0.0000000
1667.6065,5.2877456e-12,0.0000000
1668.6067,5.2764275e-12,0.0000000
1669.6069,5.2655833e-12,0.0000000
1670.6071,5.2541722e-12,0.0000000
1671.6072,5.2433259e-12,0.0000000
1672.6074,5.2324999e-12,0.0000000
1673.6076,5.2218491e-12,0.0000000
1674.6078,5.2104501e-12,0.0000000
1675.6079,5.1998837e-12,0.0000000
1676.6081,5.1887253e-12,0.0000000
1677.6083,5.1781134e-12,0.0000000
1678.6085,5.1673320e-12,0.0000000
1679.6087,5.1564119e-12,0.0000000
1680.6088,5.1458024e-12,0.0000000
1681.6090,5.1352398e-12,0.0000000
1682.6092,5.1241572e-12,0.0000000
1683.6094,5.1135608e-12,0.0000000
1684.6095,5.1029827e-12,0.0000000
1685.6097,5.0924207e-12,0.0000000
1686.6099,5.0819296e-12,0.0000000
1687.6101,5.0713642e-12,0.0000000
1688.6103,5.0609281e-12,0.0000000
1689.6104,5.0504194e-12,0.0000000
1690.6106,5.0398751e-12,0.0000000
1691.6108,5.0296090e-12,0.0000000
1692.6110,5.0190658e-12,0.0000000
1693.6112,5.0087223e-12,0.0000000
1694.6114,4.9981330e-12,0.0000000
1695.6115,4.9877989e-12,0.0000000
1696.6117,4.9773205e-12,0.0000000
1697.6119,4.9675136e-12,0.0000000
1698.6121,4.9571798e-12,0.0000000
1699.6123,4.9467909e-12,0.0000000
1700.6124,4.9364062e-12,0.0000000
1701.6126,4.9265503e-12,0.0000000
1702.6128,4.9162152e-12,0.0000000
1703.6130,4.9059931e-12,0.0000000
1704.6132,4.8960257e-12,0.0000000
1705.6134,4.8857527e-12,0.0000000
1706.6135,4.8759433e-12,0.0000000
1707.6137,4.8657213e-12,0.0000000
1708.6139,4.8559522e-12,0.0000000
1709.6141,4.8458136e-12,0.0000000
1710.6143,4.8359826e-12,0.0000000
1711.6145,4.8261798e-12,0.0000000
1712.6146,4.8159506e-12,0.0000000
1713.6148,4.8065080e-12,0.0000000
1714.6150,4.7967658e-12,0.0000000
1715.6152,4.7866525e-12,0.0000000
1716.6154,4.7767966e-12,0.0000000
1717.6156,4.7671094e-12,0.0000000
1718.6158,4.7571373e-12,0.0000000
1719.6159,4.7475552e-12,0.0000000
1720.6161,4.7381029e-12,0.0000000
1721.6163,4.7282800e-12,0.0000000
1722.6165,4.7187688e-12,0.0000000
1723.6167,4.7093161e-12,0.0000000
1724.6169,4.6993790e-12,0.0000000
1725.6171,4.6899020e-12,0.0000000
1726.6172,4.6803533e-12,0.0000000
1727.6174,4.6708943e-12,0.0000000
1728.6176,4.6613459e-12,0.0000000
1729.6178,4.6518006e-12,0.0000000
1730.6180,4.6425129e-12,0.0000000
1731.6182,4.6330589e-12,0.0000000
1732.6184,4.6236326e-12,0.0000000
1733.6186,4.6143981e-12,0.0000000
1734.6187,4.6049586e-12,0.0000000
1735.6189,4.5957456e-12,0.0000000
1736.6191,4.5863354e-12,0.0000000
1737.6193,4.5770828e-12,0.0000000
1738.6195,4.5676733e-12,0.0000000
1739.6197,4.5585043e-12,0.0000000
1740.6199,4.5492773e-12,0.0000000
1741.6201,4.5400035e-12,0.0000000
1742.6203,4.5312263e-12,0.0000000
1743.6204,4.5218556e-12,0.0000000
1744.6206,4.5126666e-12,0.0000000
1745.6208,4.5037491e-12,0.0000000
1746.6210,4.4944605e-12,0.0000000
1747.6212,4.4856402e-12,0.0000000
1748.6214,4.4763200e-12,0.0000000
1749.6216,4.4675283e-12,0.0000000
1750.6218,4.4585018e-12,0.0000000
1751.6220,4.4495680e-12,0.0000000
1752.6222,4.4406814e-12,0.0000000
1753.6224,4.4316201e-12,0.0000000
1754.6225,4.4229870e-12,0.0000000
1755.6227,4.4138802e-12,0.0000000
1756.6229,4.4052116e-12,0.0000000
1757.6231,4.3964041e-12,0.0000000
1758.6233,4.3874190e-12,0.0000000
1759.6235,4.3789309e-12,0.0000000
1760.6237,4.3698647e-12,0.0000000
1761.6239,4.3613394e-12,0.0000000
1762.6241,4.3527981e-12,0.0000000
1763.6243,4.3438401e-12,0.0000000
1764.6245,4.3352673e-12,0.0000000
1765.6247,4.3265928e-12,0.0000000
1766.6249,4.3177718e-12,0.0000000
1767.6251,4.3092132e-12,0.0000000
1768.6252,4.3007582e-12,0.0000000
1769.6254,4.2920336e-12,0.0000000
1770.6256,4.2837485e-12,0.0000000
1771.6258,4.2748208e-12,0.0000000
1772.6260,4.2666276e-12,0.0000000
1773.6262,4.2580835e-12,0.0000000
1774.6264,4.2496332e-12,0.0000000
1775.6266,4.2411571e-12,0.0000000
1776.6268,4.2328439e-12,0.0000000
1777.6270,4.2244317e-12,0.0000000
1778.6272,4.2160417e-12,0.0000000
1779.6274,4.2077101e-12,0.0000000
1780.6276,4.1993460e-12,0.0000000
1781.6278,4.1912011e-12,0.0000000
1782.6280,4.1829693e-12,0.0000000
1783.6282,4.1746823e-12,0.0000000
1784.6284,4.1664811e-12,0.0000000
1785.6286,4.1580622e-12,0.0000000
1786.6288,4.1497498e-12,0.0000000
1787.6290,4.1414700e-12,0.0000000
1788.6291,4.1337330e-12,0.0000000
1789.6293,4.1254457e-12,0.0000000
1790.6295,4.1171208e-12,0.0000000
1791.6297,4.1093322e-12,0.0000000
1792.6299,4.1010252e-12,0.0000000
1793.6301,4.0928975e-12,0.0000000
1794.6303,4.0850959e-12,0.0000000
1795.6305,4.0769208e-12,0.0000000
1796.6307,4.0686398e-12,0.0000000
1797.6309,4.0609909e-12,0.0000000
1798.6311,4.0528723e-12,0.0000000
1799.6313,4.0451655e-12,0.0000000
1800.6315,4.0372872e-12,0.0000000
1801.6317,4.0290462e-12,0.0000000
1802.6319,4.0214124e-12,0.0000000
1803.6321,4.0135853e-12,0.0000000
1804.6323,4.0053321e-12,0.0000000
1805.6325,3.9979255e-12,0.0000000
1806.6327,3.9898792e-12,0.0000000
1807.6329,3.9822567e-12,0.0000000
1808.6331,3.9742113e-12,0.0000000
1809.6333,3.9668033e-12,0.0000000
1810.6335,3.9587545e-12,0.0000000
1811.6337,3.9512835e-12,0.0000000
1812.6339,3.9433121e-12,0.0000000
1813.6341,3.9357297e-12,0.0000000
1814.6343,3.9279359e-12,0.0000000
1815.6345,3.9204904e-12,0.0000000
1816.6347,3.9129264e-12,0.0000000
1817.6349,3.9054551e-12,0.0000000
1818.6351,3.8975797e-12,0.0000000
1819.6353,3.8902114e-12,0.0000000
1820.6355,3.8826526e-12,0.0000000
1821.6357,3.8747514e-12,0.0000000
1822.6359,3.8674315e-12,0.0000000
1823.6361,3.8599610e-12,0.0000000
1824.6363,3.8527438e-12,0.0000000
1825.6365,3.8452244e-12,0.0000000
1826.6367,3.8378618e-12,0.0000000
1827.6369,3.8299492e-12,0.0000000
1828.6371,3.8226148e-12,0.0000000
1829.6373,3.8152805e-12,0.0000000
1830.6375,3.8080284e-12,0.0000000
1831.6377,3.8006014e-12,0.0000000
1832.6379,3.7933372e-12,0.0000000
1833.6381,3.7859054e-12,0.0000000
1834.6383,3.7786887e-12,0.0000000
1835.6386,3.7713417e-12,0.0000000
1836.6388,3.7641046e-12,0.0000000
1837.6390,3.7568879e-12,0.0000000
1838.6392,3.7496700e-12,0.0000000
1839.6394,3.7427232e-12,0.0000000
1840.6396,3.7355009e-12,0.0000000
1841.6398,3.7283830e-12,0.0000000
1842.6400,3.7210814e-12,0.0000000
1843.6402,3.7140301e-12,0.0000000
1844.6404,3.7068848e-12,0.0000000
1845.6406,3.6997154e-12,0.0000000
1846.6408,3.6926285e-12,0.0000000
1847.6410,3.6856165e-12,0.0000000
1848.6412,3.6784306e-12,0.0000000
1849.6414,3.6713518e-12,0.0000000
1850.6416,3.6642868e-12,0.0000000
1851.6418,3.6572394e-12,0.0000000
1852.6420,3.6505051e-12,0.0000000
1853.6422,3.6435677e-12,0.0000000
1854.6424,3.6365206e-12,0.0000000
1855.6426,3.6294673e-12,0.0000000
1856.6428,3.6224236e-12,0.0000000
1857.6431,3.6159611e-12,0.0000000
1858.6433,3.6087031e-12,0.0000000
1859.6435,3.6016560e-12,0.0000000
1860.6437,3.5950413e-12,0.0000000
1861.6439,3.5881935e-12,0.0000000
1862.6441,3.5812396e-12,0.0000000
1863.6443,3.5747298e-12,0.0000000
1864.6445,3.5677437e-12,0.0000000
1865.6447,3.5607869e-12,0.0000000
1866.6449,3.5542609e-12,0.0000000
1867.6451,3.5473282e-12,0.0000000
1868.6453,3.5410101e-12,0.0000000
1869.6455,3.5340725e-12,0.0000000
1870.6457,3.5275462e-12,0.0000000
1871.6460,3.5206384e-12,0.0000000
1872.6462,3.5141597e-12,0.0000000
1873.6464,3.5071931e-12,0.0000000
1874.6466,3.5008317e-12,0.0000000
1875.6468,3.4940218e-12,0.0000000
1876.6470,3.4875726e-12,0.0000000
1877.6472,3.4810946e-12,0.0000000
1878.6474,3.4743481e-12,0.0000000
1879.6476,3.4679484e-12,0.0000000
1880.6478,3.4615356e-12,0.0000000
1881.6480,3.4544892e-12,0.0000000
1882.6482,3.4483296e-12,0.0000000
1883.6485,3.4419160e-12,0.0000000
1884.6487,3.4356445e-12,0.0000000
1885.6489,3.4287373e-12,0.0000000
1886.6491,3.4224928e-12,0.0000000
1887.6493,3.4157241e-12,0.0000000
1888.6495,3.4096126e-12,0.0000000
1889.6497,3.4032521e-12,0.0000000
1890.6499,3.3966382e-12,0.0000000
1891.6501,3.3904737e-12,0.0000000
1892.6503,3.3842673e-12,0.0000000
1893.6506,3.3775524e-12,0.0000000
1894.6508,3.3714387e-12,0.0000000
1895.6510,3.3651916e-12,0.0000000
1896.6512,3.3589733e-12,0.0000000
1897.6514,3.3525926e-12,0.0000000
1898.6516,3.3461488e-12,0.0000000
1899.6518,3.3401042e-12,0.0000000
1900.6520,3.3338124e-12,0.0000000
1901.6522,3.3276268e-12,0.0000000
1902.6525,3.3211578e-12,0.0000000
1903.6527,3.3150447e-12,0.0000000
1904.6529,3.3088906e-12,0.0000000
1905.6531,3.3028042e-12,0.0000000
1906.6533,3.2967111e-12,0.0000000
1907.6535,3.2905668e-12,0.0000000
1908.6537,3.2845697e-12,0.0000000
1909.6539,3.2784167e-12,0.0000000
1910.6541,3.2722129e-12,0.0000000
1911.6544,3.2663360e-12,0.0000000
1912.6546,3.2601085e-12,0.0000000
1913.6548,3.2541189e-12,0.0000000
1914.6550,3.2481016e-12,0.0000000
1915.6552,3.2420422e-12,0.0000000
1916.6554,3.2359052e-12,0.0000000
1917.6556,3.2299047e-12,0.0000000
1918.6558,3.2239370e-12,0.0000000
1919.6561,3.2179848e-12,0.0000000
1920.6563,3.2121432e-12,0.0000000
1921.6565,3.2058605e-12,0.0000000
1922.6567,3.2001683e-12,0.0000000
1923.6569,3.1943641e-12,0.0000000
1924.6571,3.1883948e-12,0.0000000
1925.6573,3.1826514e-12,0.0000000
1926.6576,3.1764629e-12,0.0000000
1927.6578,3.1706564e-12,0.0000000
1928.6580,3.1648954e-12,0.0000000
1929.6582,3.1589010e-12,0.0000000
1930.6584,3.1531258e-12,0.0000000
1931.6586,3.1474250e-12,0.0000000
1932.6588,3.1417291e-12,0.0000000
1933.6591,3.1359547e-12,0.0000000
1934.6593,3.1301419e-12,0.0000000
1935.6595,3.1242818e-12,0.0000000
1936.6597,3.1185866e-12,0.0000000
