wave,flux,fluxerr
1350.5642,9.3011153e-14,0.0000000
1351.5643,9.2791054e-14,0.0000000
1352.5644,9.2572804e-14,0.0000000
1353.5644,9.2350737e-14,0.0000000
1354.5645,9.2135717e-14,0.0000000
1355.5646,9.1921983e-14,0.0000000
1356.5647,9.1699567e-14,0.0000000
1357.5648,9.1485155e-14,0.0000000
1358.5648,9.1271104e-14,0.0000000
1359.5649,9.1055097e-14,0.0000000
1360.5650,9.0836671e-14,0.0000000
1361.5651,9.0621412e-14,0.0000000
1362.5652,9.0408885e-14,0.0000000
1363.5652,9.0199127e-14,0.0000000
1364.5653,8.9987813e-14,0.0000000
1365.5654,8.9773540e-14,0.0000000
1366.5655,8.9560269e-14,0.0000000
1367.5656,8.9354064e-14,0.0000000
1368.5657,8.9142201e-14,0.0000000
1369.5657,8.8928524e-14,0.0000000
1370.5658,8.8723834e-14,0.0000000
1371.5659,8.8513465e-14,0.0000000
1372.5660,8.8305366e-14,0.0000000
1373.5661,8.8100000e-14,0.0000000
1374.5662,8.7893273e-14,0.0000000
1375.5663,8.7681472e-14,0.0000000
1376.5663,8.7477533e-14,0.0000000
1377.5664,8.7272054e-14,0.0000000
1378.5665,8.7068214e-14,0.0000000
1379.5666,8.6863997e-14,0.0000000
1380.5667,8.6659148e-14,0.0000000
1381.5668,8.6457531e-14,0.0000000
1382.5669,8.6256074e-14,0.0000000
1383.5670,8.6054488e-14,0.0000000
1384.5671,8.5853792e-14,0.0000000
1385.5671,8.5651636e-14,0.0000000
1386.5672,8.5454163e-14,0.0000000
1387.5673,8.5251805e-14,0.0000000
1388.5674,8.5055812e-14,0.0000000
1389.5675,8.4854699e-14,0.0000000
1390.5676,8.4655757e-14,0.0000000
1391.5677,8.4456556e-14,0.0000000
1392.5678,8.4264230e-14,0.0000000
1393.5679,8.4065583e-14,0.0000000
1394.5680,8.3867346e-14,0.0000000
1395.5681,8.3674826e-14,0.0000000
1396.5682,8.3477031e-14,0.0000000
1397.5683,8.3284317e-14,0.0000000
1398.5684,8.3092315e-14,0.0000000
1399.5685,8.2899591e-14,0.0000000
1400.5686,8.2704125e-14,0.0000000
1401.5687,8.2512657e-14,0.0000000
1402.5688,8.2321596e-14,0.0000000
1403.5689,8.2129516e-14,0.0000000
1404.5690,8.1940397e-14,0.0000000
1405.5691,8.1748153e-14,0.0000000
1406.5692,8.1560816e-14,0.0000000
1407.5693,8.1369971e-14,0.0000000
1408.5694,8.1181094e-14,0.0000000
1409.5695,8.0994235e-14,0.0000000
1410.5696,8.0806406e-14,0.0000000
1411.5697,8.0617078e-14,0.0000000
1412.5698,8.0435037e-14,0.0000000
1413.5699,8.0246430e-14,0.0000000
1414.5700,8.0063789e-14,0.0000000
1415.5701,7.9879865e-14,0.0000000
1416.5702,7.9692609e-14,0.0000000
1417.5703,7.9506651e-14,0.0000000
1418.5704,7.9322434e-14,0.0000000
1419.5705,7.9140593e-14,0.0000000
1420.5706,7.8958708e-14,0.0000000
1421.5707,7.8777484e-14,0.0000000
1422.5708,7.8596066e-14,0.0000000
1423.5709,7.8414103e-14,0.0000000
1424.5711,7.8234711e-14,0.0000000
1425.5712,7.8056824e-14,0.0000000
1426.5713,7.7876915e-14,0.0000000
1427.5714,7.7695072e-14,0.0000000
1428.5715,7.7519428e-14,0.0000000
1429.5716,7.7341885e-14,0.0000000
1430.5717,7.7165242e-14,0.0000000
1431.5718,7.6987085e-14,0.0000000
1432.5719,7.6811668e-14,0.0000000
1433.5720,7.6633843e-14,0.0000000
1434.5722,7.6459362e-14,0.0000000
1435.5723,7.6286825e-14,0.0000000
1436.5724,7.6107742e-14,0.0000000
1437.5725,7.5933664e-14,0.0000000
1438.5726,7.5761350e-14,0.0000000
1439.5727,7.5588768e-14,0.0000000
1440.5728,7.5417090e-14,0.0000000
1441.5729,7.5245374e-14,0.0000000
1442.5731,7.5072828e-14,0.0000000
1443.5732,7.4900117e-14,0.0000000
1444.5733,7.4729211e-14,0.0000000
1445.5734,7.4563460e-14,0.0000000
1446.5735,7.4392539e-14,0.0000000
1447.5736,7.4220662e-14,0.0000000
1448.5738,7.4055909e-14,0.0000000
1449.5739,7.3884884e-14,0.0000000
1450.5740,7.3712941e-14,0.0000000
1451.5741,7.3545186e-14,0.0000000
1452.5742,7.3383835e-14,0.0000000
1453.5743,7.3216770e-14,0.0000000
1454.5745,7.3048207e-14,0.0000000
1455.5746,7.2881152e-14,0.0000000
1456.5747,7.2720760e-14,0.0000000
1457.5748,7.2553837e-14,0.0000000
1458.5749,7.2392350e-14,0.0000000
1459.5751,7.2225694e-14,0.0000000
1460.5752,7.2065775e-14,0.0000000
1461.5753,7.1897497e-14,0.0000000
1462.5754,7.1738957e-14,0.0000000
1463.5756,7.1572403e-14,0.0000000
1464.5757,7.1412267e-14,0.0000000
1465.5758,7.1253840e-14,0.0000000
1466.5759,7.1092626e-14,0.0000000
1467.5760,7.0931192e-14,0.0000000
1468.5762,7.0775140e-14,0.0000000
1469.5763,7.0612123e-14,0.0000000
1470.5764,7.0455787e-14,0.0000000
1471.5765,7.0297947e-14,0.0000000
1472.5767,7.0134920e-14,0.0000000
1473.5768,6.9978293e-14,0.0000000
1474.5769,6.9824095e-14,0.0000000
1475.5770,6.9665467e-14,0.0000000
1476.5772,6.9506828e-14,0.0000000
1477.5773,6.9355035e-14,0.0000000
1478.5774,6.9196745e-14,0.0000000
1479.5776,6.9045748e-14,0.0000000
1480.5777,6.8888870e-14,0.0000000
1481.5778,6.8733447e-14,0.0000000
1482.5779,6.8579750e-14,0.0000000
1483.5781,6.8423600e-14,0.0000000
1484.5782,6.8273737e-14,0.0000000
1485.5783,6.8122756e-14,0.0000000
1486.5785,6.7969566e-14,0.0000000
1487.5786,6.7816941e-14,0.0000000
1488.5787,6.7664805e-14,0.0000000
1489.5788,6.7514565e-14,0.0000000
1490.5790,6.7366680e-14,0.0000000
1491.5791,6.7213951e-14,0.0000000
1492.5792,6.7064204e-14,0.0000000
1493.5794,6.6914529e-14,0.0000000
1494.5795,6.6766690e-14,0.0000000
1495.5796,6.6617052e-14,0.0000000
1496.5798,6.6468014e-14,0.0000000
1497.5799,6.6321051e-14,0.0000000
1498.5800,6.6175885e-14,0.0000000
1499.5802,6.6026829e-14,0.0000000
1500.5803,6.5882695e-14,0.0000000
1501.5804,6.5738895e-14,0.0000000
1502.5806,6.5589079e-14,0.0000000
1503.5807,6.5445723e-14,0.0000000
1504.5809,6.5302024e-14,0.0000000
1505.5810,6.5157934e-14,0.0000000
1506.5811,6.5012696e-14,0.0000000
1507.5813,6.4867260e-14,0.0000000
1508.5814,6.4723550e-14,0.0000000
1509.5815,6.4579867e-14,0.0000000
1510.5817,6.4436918e-14,0.0000000
1511.5818,6.4294942e-14,0.0000000
1512.5819,6.4152266e-14,0.0000000
1513.5821,6.4014669e-14,0.0000000
1514.5822,6.3873587e-14,0.0000000
1515.5824,6.3731496e-14,0.0000000
1516.5825,6.3590914e-14,0.0000000
1517.5826,6.3452952e-14,0.0000000
1518.5828,6.3313098e-14,0.0000000
1519.5829,6.3171547e-14,0.0000000
1520.5831,6.3035683e-14,0.0000000
1521.5832,6.2895266e-14,0.0000000
1522.5833,6.2756218e-14,0.0000000
1523.5835,6.2618446e-14,0.0000000
1524.5836,6.2485117e-14,0.0000000
1525.5838,6.2346317e-14,0.0000000
1526.5839,6.2206843e-14,0.0000000
1527.5841,6.2074548e-14,0.0000000
1528.5842,6.1936504e-14,0.0000000
1529.5843,6.1799587e-14,0.0000000
1530.5845,6.1665933e-14,0.0000000
1531.5846,6.1534032e-14,0.0000000
1532.5848,6.1396879e-14,0.0000000
1533.5849,6.1265952e-14,0.0000000
1534.5851,6.1127814e-14,0.0000000
1535.5852,6.0997895e-14,0.0000000
1536.5854,6.0864569e-14,0.0000000
1537.5855,6.0727775e-14,0.0000000
1538.5856,6.0597751e-14,0.0000000
1539.5858,6.0466729e-14,0.0000000
1540.5859,6.0336442e-14,0.0000000
1541.5861,6.0206366e-14,0.0000000
1542.5862,6.0076164e-14,0.0000000
1543.5864,5.9939195e-14,0.0000000
1544.5865,5.9809067e-14,0.0000000
1545.5867,5.9679104e-14,0.0000000
1546.5868,5.9555801e-14,0.0000000
1547.5870,5.9426896e-14,0.0000000
1548.5871,5.9297141e-14,0.0000000
1549.5873,5.9166976e-14,0.0000000
1550.5874,5.9037103e-14,0.0000000
1551.5876,5.8908506e-14,0.0000000
1552.5877,5.8785133e-14,0.0000000
1553.5879,5.8656559e-14,0.0000000
1554.5880,5.8527897e-14,0.0000000
1555.5882,5.8404737e-14,0.0000000
1556.5883,5.8276169e-14,0.0000000
1557.5885,5.8149927e-14,0.0000000
1558.5886,5.8026927e-14,0.0000000
1559.5888,5.7900485e-14,0.0000000
1560.5889,5.7773966e-14,0.0000000
1561.5891,5.7646867e-14,0.0000000
1562.5892,5.7529387e-14,0.0000000
1563.5894,5.7401996e-14,0.0000000
1564.5895,5.7276726e-14,0.0000000
1565.5897,5.7157311e-14,0.0000000
1566.5898,5.7031862e-14,0.0000000
1567.5900,5.6913215e-14,0.0000000
1568.5901,5.6787089e-14,0.0000000
1569.5903,5.6668546e-14,0.0000000
1570.5904,5.6544076e-14,0.0000000
1571.5906,5.6425410e-14,0.0000000
1572.5908,5.6305759e-14,0.0000000
1573.5909,5.6180857e-14,0.0000000
1574.5911,5.6063307e-14,0.0000000
1575.5912,5.5945695e-14,0.0000000
1576.5914,5.5820052e-14,0.0000000
1577.5915,5.5702606e-14,0.0000000
1578.5917,5.5585162e-14,0.0000000
1579.5918,5.5467356e-14,0.0000000
1580.5920,5.5347784e-14,0.0000000
1581.5922,5.5231008e-14,0.0000000
1582.5923,5.5107464e-14,0.0000000
1583.5925,5.4990967e-14,0.0000000
1584.5926,5.4875983e-14,0.0000000
1585.5928,5.4759153e-14,0.0000000
1586.5930,5.4642409e-14,0.0000000
1587.5931,5.4527261e-14,0.0000000
1588.5933,5.4412481e-14,0.0000000
1589.5934,5.4294882e-14,0.0000000
1590.5936,5.4179016e-14,0.0000000
1591.5937,5.4062342e-14,0.0000000
1592.5939,5.3952862e-14,0.0000000
1593.5941,5.3836257e-14,0.0000000
1594.5942,5.3720484e-14,0.0000000
1595.5944,5.3606682e-14,0.0000000
1596.5945,5.3493740e-14,0.0000000
1597.5947,5.3381742e-14,0.0000000
1598.5949,5.3267849e-14,0.0000000
1599.5950,5.3155191e-14,0.0000000
1600.5952,5.3040489e-14,0.0000000
1601.5954,5.2933356e-14,0.0000000
1602.5955,5.2818903e-14,0.0000000
1603.5957,5.2706952e-14,0.0000000
1604.5958,5.2593525e-14,0.0000000
1605.5960,5.2487358e-14,0.0000000
1606.5962,5.2372872e-14,0.0000000
1607.5963,5.2260269e-14,0.0000000
1608.5965,5.2154977e-14,0.0000000
1609.5967,5.2043082e-14,0.0000000
1610.5968,5.1934771e-14,0.0000000
1611.5970,5.1823827e-14,0.0000000
1612.5971,5.1716691e-14,0.0000000
1613.5973,5.1606589e-14,0.0000000
1614.5975,5.1499034e-14,0.0000000
1615.5976,5.1388169e-14,0.0000000
1616.5978,5.1282944e-14,0.0000000
1617.5980,5.1175457e-14,0.0000000
1618.5981,5.1066614e-14,0.0000000
1619.5983,5.0961374e-14,0.0000000
1620.5985,5.0852962e-14,0.0000000
1621.5986,5.0747472e-14,0.0000000
1622.5988,5.0639993e-14,0.0000000
1623.5990,5.0535991e-14,0.0000000
1624.5991,5.0431454e-14,0.0000000
1625.5993,5.0325915e-14,0.0000000
1626.5995,5.0215709e-14,0.0000000
1627.5996,5.0112261e-14,0.0000000
1628.5998,5.0007448e-14,0.0000000
1629.6000,4.9902751e-14,0.0000000
1630.6001,4.9799540e-14,0.0000000
1631.6003,4.9694756e-14,0.0000000
1632.6005,4.9590434e-14,0.0000000
1633.6007,4.9493635e-14,0.0000000
1634.6008,4.9389839e-14,0.0000000
1635.6010,4.9281243e-14,0.0000000
1636.6012,4.9180833e-14,0.0000000
1637.6013,4.9078431e-14,0.0000000
1638.6015,4.8974963e-14,0.0000000
1639.6017,4.8872738e-14,0.0000000
1640.6018,4.8772494e-14,0.0000000
1641.6020,4.8670379e-14,0.0000000
1642.6022,4.8569745e-14,0.0000000
1643.6024,4.8473662e-14,0.0000000
1644.6025,4.8373723e-14,0.0000000
1645.6027,4.8271385e-14,0.0000000
1646.6029,4.8170673e-14,0.0000000
1647.6030,4.8070870e-14,0.0000000
1648.6032,4.7974462e-14,0.0000000
1649.6034,4.7873123e-14,0.0000000
1650.6036,4.7772621e-14,0.0000000
1651.6037,4.7674781e-14,0.0000000
1652.6039,4.7577097e-14,0.0000000
1653.6041,4.7476308e-14,0.0000000
1654.6043,4.7383133e-14,0.0000000
1655.6044,4.7281698e-14,0.0000000
1656.6046,4.7186326e-14,0.0000000
1657.6048,4.7087332e-14,0.0000000
1658.6049,4.6991945e-14,0.0000000
1659.6051,4.6894190e-14,0.0000000
1660.6053,4.6799303e-14,0.0000000
1661.6055,4.6700926e-14,0.0000000
1662.6056,4.6608138e-14,0.0000000
1663.6058,4.6507725e-14,0.0000000
1664.6060,4.6415239e-14,0.0000000
1665.6062,4.6321357e-14,0.0000000
1666.6064,4.6221969e-14,0.0000000
1667.6065,4.6129274e-14,0.0000000
1668.6067,4.6035542e-14,0.0000000
1669.6069,4.5942817e-14,0.0000000
1670.6071,4.5843528e-14,0.0000000
1671.6072,4.5751325e-14,0.0000000
1672.6074,4.5658689e-14,0.0000000
1673.6076,4.5566051e-14,0.0000000
1674.6078,4.5470082e-14,0.0000000
1675.6079,4.5376887e-14,0.0000000
1676.6081,4.5287116e-14,0.0000000
1677.6083,4.5196812e-14,0.0000000
1678.6085,4.5098228e-14,0.0000000
1679.6087,4.5008491e-14,0.0000000
1680.6088,4.4917949e-14,0.0000000
1681.6090,4.4827392e-14,0.0000000
1682.6092,4.4737255e-14,0.0000000
1683.6094,4.4647007e-14,0.0000000
1684.6095,4.4549553e-14,0.0000000
1685.6097,4.4459513e-14,0.0000000
1686.6099,4.4370133e-14,0.0000000
1687.6101,4.4279710e-14,0.0000000
1688.6103,4.4190161e-14,0.0000000
1689.6104,4.4100422e-14,0.0000000
1690.6106,4.4009870e-14,0.0000000
1691.6108,4.3920948e-14,0.0000000
1692.6110,4.3830671e-14,0.0000000
1693.6112,4.3741593e-14,0.0000000
1694.6114,4.3658508e-14,0.0000000
1695.6115,4.3569153e-14,0.0000000
1696.6117,4.3480506e-14,0.0000000
1697.6119,4.3389808e-14,0.0000000
1698.6121,4.3301157e-14,0.0000000
1699.6123,4.3214195e-14,0.0000000
1700.6124,4.3129945e-14,0.0000000
1701.6126,4.3041186e-14,0.0000000
1702.6128,4.2952494e-14,0.0000000
1703.6130,4.2868642e-14,0.0000000
1704.6132,4.2781247e-14,0.0000000
1705.6134,4.2692544e-14,0.0000000
1706.6135,4.2610706e-14,0.0000000
1707.6137,4.2522967e-14,0.0000000
1708.6139,4.2434962e-14,0.0000000
1709.6141,4.2350915e-14,0.0000000
1710.6143,4.2264207e-14,0.0000000
1711.6145,4.2181287e-14,0.0000000
1712.6146,4.2093830e-14,0.0000000
1713.6148,4.2011956e-14,0.0000000
1714.6150,4.1925479e-14,0.0000000
1715.6152,4.1845593e-14,0.0000000
1716.6154,4.1758920e-14,0.0000000
1717.6156,4.1673186e-14,0.0000000
1718.6158,4.1591930e-14,0.0000000
1719.6159,4.1505230e-14,0.0000000
1720.6161,4.1426386e-14,0.0000000
1721.6163,4.1339683e-14,0.0000000
1722.6165,4.1261144e-14,0.0000000
1723.6167,4.1174364e-14,0.0000000
1724.6169,4.1095793e-14,0.0000000
1725.6171,4.1009075e-14,0.0000000
1726.6172,4.0930503e-14,0.0000000
1727.6174,4.0847236e-14,0.0000000
1728.6176,4.0765133e-14,0.0000000
1729.6178,4.0685446e-14,0.0000000
1730.6180,4.0608333e-14,0.0000000
1731.6182,4.0523203e-14,0.0000000
1732.6184,4.0443286e-14,0.0000000
1733.6186,4.0361127e-14,0.0000000
1734.6187,4.0281345e-14,0.0000000
1735.6189,4.0199688e-14,0.0000000
1736.6191,4.0122320e-14,0.0000000
1737.6193,4.0042651e-14,0.0000000
1738.6195,3.9962844e-14,0.0000000
1739.6197,3.9880821e-14,0.0000000
1740.6199,3.9802274e-14,0.0000000
1741.6201,3.9723228e-14,0.0000000
1742.6203,3.9646201e-14,0.0000000
1743.6204,3.9567864e-14,0.0000000
1744.6206,3.9490266e-14,0.0000000
1745.6208,3.9412233e-14,0.0000000
1746.6210,3.9334368e-14,0.0000000
1747.6212,3.9256825e-14,0.0000000
1748.6214,3.9178029e-14,0.0000000
1749.6216,3.9099659e-14,0.0000000
1750.6218,3.9020910e-14,0.0000000
1751.6220,3.8945314e-14,0.0000000
1752.6222,3.8868382e-14,0.0000000
1753.6224,3.8790631e-14,0.0000000
1754.6225,3.8713828e-14,0.0000000
1755.6227,3.8637198e-14,0.0000000
1756.6229,3.8560405e-14,0.0000000
1757.6231,3.8484837e-14,0.0000000
1758.6233,3.8409642e-14,0.0000000
1759.6235,3.8332611e-14,0.0000000
1760.6237,3.8257604e-14,0.0000000
1761.6239,3.8181230e-14,0.0000000
1762.6241,3.8106148e-14,0.0000000
1763.6243,3.8031779e-14,0.0000000
1764.6245,3.7958989e-14,0.0000000
1765.6247,3.7883167e-14,0.0000000
1766.6249,3.7812306e-14,0.0000000
1767.6251,3.7735284e-14,0.0000000
1768.6252,3.7661002e-14,0.0000000
1769.6254,3.7586039e-14,0.0000000
1770.6256,3.7511588e-14,0.0000000
1771.6258,3.7442677e-14,0.0000000
1772.6260,3.7365700e-14,0.0000000
1773.6262,3.7293072e-14,0.0000000
1774.6264,3.7218856e-14,0.0000000
1775.6266,3.7148744e-14,0.0000000
1776.6268,3.7073417e-14,0.0000000
1777.6270,3.7000062e-14,0.0000000
1778.6272,3.6927854e-14,0.0000000
1779.6274,3.6858625e-14,0.0000000
1780.6276,3.6783321e-14,0.0000000
1781.6278,3.6712501e-14,0.0000000
1782.6280,3.6640413e-14,0.0000000
1783.6282,3.6568449e-14,0.0000000
1784.6284,3.6498625e-14,0.0000000
1785.6286,3.6424883e-14,0.0000000
1786.6288,3.6357383e-14,0.0000000
1787.6290,3.6285785e-14,0.0000000
1788.6291,3.6216061e-14,0.0000000
1789.6293,3.6141935e-14,0.0000000
1790.6295,3.6074889e-14,0.0000000
1791.6297,3.6002986e-14,0.0000000
1792.6299,3.5933395e-14,0.0000000
1793.6301,3.5864721e-14,0.0000000
1794.6303,3.5793324e-14,0.0000000
1795.6305,3.5725548e-14,0.0000000
1796.6307,3.5652338e-14,0.0000000
1797.6309,3.5585271e-14,0.0000000
1798.6311,3.5516507e-14,0.0000000
1799.6313,3.5447535e-14,0.0000000
1800.6315,3.5382164e-14,0.0000000
1801.6317,3.5309688e-14,0.0000000
1802.6319,3.5240121e-14,0.0000000
1803.6321,3.5172335e-14,0.0000000
1804.6323,3.5106294e-14,0.0000000
1805.6325,3.5037990e-14,0.0000000
1806.6327,3.4971295e-14,0.0000000
1807.6329,3.4904173e-14,0.0000000
1808.6331,3.4833612e-14,0.0000000
1809.6333,3.4768333e-14,0.0000000
1810.6335,3.4697578e-14,0.0000000
1811.6337,3.4632361e-14,0.0000000
1812.6339,3.4567771e-14,0.0000000
1813.6341,3.4495507e-14,0.0000000
1814.6343,3.4431320e-14,0.0000000
1815.6345,3.4366695e-14,0.0000000
1816.6347,3.4301852e-14,0.0000000
1817.6349,3.4236517e-14,0.0000000
1818.6351,3.4169499e-14,0.0000000
1819.6353,3.4102575e-14,0.0000000
1820.6355,3.4036829e-14,0.0000000
1821.6357,3.3971247e-14,0.0000000
1822.6359,3.3905072e-14,0.0000000
1823.6361,3.3838138e-14,0.0000000
1824.6363,3.3774256e-14,0.0000000
1825.6365,3.3713000e-14,0.0000000
1826.6367,3.3646668e-14,0.0000000
1827.6369,3.3579850e-14,0.0000000
1828.6371,3.3517293e-14,0.0000000
1829.6373,3.3453701e-14,0.0000000
1830.6375,3.3389443e-14,0.0000000
1831.6377,3.3323285e-14,0.0000000
1832.6379,3.3262416e-14,0.0000000
1833.6381,3.3199315e-14,0.0000000
1834.6383,3.3132150e-14,0.0000000
1835.6386,3.3070830e-14,0.0000000
1836.6388,3.3007627e-14,0.0000000
1837.6390,3.2942117e-14,0.0000000
1838.6392,3.2880142e-14,0.0000000
1839.6394,3.2817655e-14,0.0000000
1840.6396,3.2752821e-14,0.0000000
1841.6398,3.2694814e-14,0.0000000
1842.6400,3.2629722e-14,0.0000000
1843.6402,3.2566239e-14,0.0000000
1844.6404,3.2507207e-14,0.0000000
1845.6406,3.2443441e-14,0.0000000
1846.6408,3.2380801e-14,0.0000000
1847.6410,3.2320913e-14,0.0000000
1848.6412,3.2257419e-14,0.0000000
1849.6414,3.2195282e-14,0.0000000
1850.6416,3.2134710e-14,0.0000000
1851.6418,3.2071945e-14,0.0000000
1852.6420,3.2013439e-14,0.0000000
1853.6422,3.1949561e-14,0.0000000
1854.6424,3.1892250e-14,0.0000000
1855.6426,3.1828871e-14,0.0000000
1856.6428,3.1772244e-14,0.0000000
1857.6431,3.1707937e-14,0.0000000
1858.6433,3.1650900e-14,0.0000000
1859.6435,3.1587505e-14,0.0000000
1860.6437,3.1529388e-14,0.0000000
1861.6439,3.1471924e-14,0.0000000
1862.6441,3.1409861e-14,0.0000000
1863.6443,3.1353176e-14,0.0000000
1864.6445,3.1288321e-14,0.0000000
1865.6447,3.1231951e-14,0.0000000
1866.6449,3.1172523e-14,0.0000000
1867.6451,3.1112046e-14,0.0000000
1868.6453,3.1055311e-14,0.0000000
1869.6455,3.0996125e-14,0.0000000
1870.6457,3.0935710e-14,0.0000000
1871.6460,3.0878984e-14,0.0000000
1872.6462,3.0822250e-14,0.0000000
1873.6464,3.0759357e-14,0.0000000
1874.6466,3.0702583e-14,0.0000000
1875.6468,3.0647076e-14,0.0000000
1876.6470,3.0589796e-14,0.0000000
1877.6472,3.0527163e-14,0.0000000
1878.6474,3.0471385e-14,0.0000000
1879.6476,3.0415133e-14,0.0000000
1880.6478,3.0358222e-14,0.0000000
1881.6480,3.0301768e-14,0.0000000
1882.6482,3.0242601e-14,0.0000000
1883.6485,3.0183322e-14,0.0000000
1884.6487,3.0128241e-14,0.0000000
1885.6489,3.0071314e-14,0.0000000
1886.6491,3.0016797e-14,0.0000000
1887.6493,2.9961364e-14,0.0000000
1888.6495,2.9900477e-14,0.0000000
1889.6497,2.9845336e-14,0.0000000
1890.6499,2.9789803e-14,0.0000000
1891.6501,2.9734819e-14,0.0000000
1892.6503,2.9680427e-14,0.0000000
1893.6506,2.9625649e-14,0.0000000
1894.6508,2.9564141e-14,0.0000000
1895.6510,2.9508366e-14,0.0000000
1896.6512,2.9454751e-14,0.0000000
1897.6514,2.9399152e-14,0.0000000
1898.6516,2.9345581e-14,0.0000000
1899.6518,2.9290075e-14,0.0000000
1900.6520,2.9236338e-14,0.0000000
1901.6522,2.9182700e-14,0.0000000
1902.6525,2.9127074e-14,0.0000000
1903.6527,2.9073466e-14,0.0000000
1904.6529,2.9019048e-14,0.0000000
1905.6531,2.8964179e-14,0.0000000
1906.6533,2.8910545e-14,0.0000000
1907.6535,2.8856406e-14,0.0000000
1908.6537,2.8801223e-14,0.0000000
1909.6539,2.8747563e-14,0.0000000
1910.6541,2.8693921e-14,0.0000000
1911.6544,2.8638228e-14,0.0000000
1912.6546,2.8584563e-14,0.0000000
1913.6548,2.8530893e-14,0.0000000
1914.6550,2.8476895e-14,0.0000000
1915.6552,2.8422047e-14,0.0000000
1916.6554,2.8374663e-14,0.0000000
1917.6556,2.8320979e-14,0.0000000
1918.6558,2.8267283e-14,0.0000000
1919.6561,2.8214533e-14,0.0000000
1920.6563,2.8160852e-14,0.0000000
1921.6565,2.8105430e-14,0.0000000
1922.6567,2.8056488e-14,0.0000000
1923.6569,2.8004845e-14,0.0000000
1924.6571,2.7951123e-14,0.0000000
1925.6573,2.7898692e-14,0.0000000
1926.6576,2.7844960e-14,0.0000000
1927.6578,2.7797742e-14,0.0000000
1928.6580,2.7744002e-14,0.0000000
1929.6582,2.7691189e-14,0.0000000
1930.6584,2.7639736e-14,0.0000000
1931.6586,2.7591789e-14,0.0000000
1932.6588,2.7539269e-14,0.0000000
1933.6591,2.7485029e-14,0.0000000
1934.6593,2.7433791e-14,0.0000000
1935.6595,2.7387149e-14,0.0000000
1936.6597,2.7335430e-14,0.0000000
