wave,flux,fluxerr
135.05642,6.9586029e-14,0.0000000
135.15643,6.9422393e-14,0.0000000
135.25644,6.9266145e-14,0.0000000
135.35644,6.9103175e-14,0.0000000
135.45645,6.8948484e-14,0.0000000
135.55646,6.8784729e-14,0.0000000
135.65647,6.8630070e-14,0.0000000
135.75648,6.8463211e-14,0.0000000
135.85648,6.8311484e-14,0.0000000
135.95649,6.8156965e-14,0.0000000
136.05650,6.7995816e-14,0.0000000
136.15651,6.7841779e-14,0.0000000
136.25652,6.7690199e-14,0.0000000
136.35652,6.7533138e-14,0.0000000
136.45653,6.7371941e-14,0.0000000
136.55654,6.7217895e-14,0.0000000
136.65655,6.7065875e-14,0.0000000
136.75656,6.6912429e-14,0.0000000
136.85657,6.6756763e-14,0.0000000
136.95657,6.6600438e-14,0.0000000
137.05658,6.6449013e-14,0.0000000
137.15659,6.6299335e-14,0.0000000
137.25660,6.6150844e-14,0.0000000
137.35661,6.5999971e-14,0.0000000
137.45662,6.5849124e-14,0.0000000
137.55663,6.5694625e-14,0.0000000
137.65663,6.5546096e-14,0.0000000
137.75664,6.5395171e-14,0.0000000
137.85665,6.5248678e-14,0.0000000
137.95666,6.5097690e-14,0.0000000
138.05667,6.4946663e-14,0.0000000
138.15668,6.4799456e-14,0.0000000
138.25669,6.4651951e-14,0.0000000
138.35670,6.4505317e-14,0.0000000
138.45671,6.4357901e-14,0.0000000
138.55671,6.4209979e-14,0.0000000
138.65672,6.4061949e-14,0.0000000
138.75673,6.3920616e-14,0.0000000
138.85674,6.3774524e-14,0.0000000
138.95675,6.3626556e-14,0.0000000
139.05676,6.3478460e-14,0.0000000
139.15677,6.3344471e-14,0.0000000
139.25678,6.3198943e-14,0.0000000
139.35679,6.3052081e-14,0.0000000
139.45680,6.2911346e-14,0.0000000
139.55681,6.2766558e-14,0.0000000
139.65682,6.2619489e-14,0.0000000
139.75683,6.2486524e-14,0.0000000
139.85684,6.2341690e-14,0.0000000
139.95685,6.2200122e-14,0.0000000
140.05686,6.2056023e-14,0.0000000
140.15687,6.1921768e-14,0.0000000
140.25688,6.1777573e-14,0.0000000
140.35689,6.1639962e-14,0.0000000
140.45690,6.1503283e-14,0.0000000
140.55691,6.1360535e-14,0.0000000
140.65692,6.1225291e-14,0.0000000
140.75693,6.1083526e-14,0.0000000
140.85694,6.0946045e-14,0.0000000
140.95695,6.0808973e-14,0.0000000
141.05696,6.0671078e-14,0.0000000
141.15697,6.0540659e-14,0.0000000
141.25698,6.0397971e-14,0.0000000
141.35699,6.0264039e-14,0.0000000
141.45700,6.0130161e-14,0.0000000
141.55701,5.9994967e-14,0.0000000
141.65702,5.9861399e-14,0.0000000
141.75703,5.9725303e-14,0.0000000
141.85704,5.9593156e-14,0.0000000
141.95705,5.9458644e-14,0.0000000
142.05706,5.9325443e-14,0.0000000
142.15707,5.9196397e-14,0.0000000
142.25708,5.9054560e-14,0.0000000
142.35709,5.8929651e-14,0.0000000
142.45711,5.8798022e-14,0.0000000
142.55712,5.8664159e-14,0.0000000
142.65713,5.8533712e-14,0.0000000
142.75714,5.8399864e-14,0.0000000
142.85715,5.8274716e-14,0.0000000
142.95716,5.8148860e-14,0.0000000
143.05717,5.8012897e-14,0.0000000
143.15718,5.7887491e-14,0.0000000
143.25719,5.7756932e-14,0.0000000
143.35720,5.7625287e-14,0.0000000
143.45722,5.7497096e-14,0.0000000
143.55723,5.7371972e-14,0.0000000
143.65724,5.7246517e-14,0.0000000
143.75725,5.7115093e-14,0.0000000
143.85726,5.6985891e-14,0.0000000
143.95727,5.6865160e-14,0.0000000
144.05728,5.6737724e-14,0.0000000
144.15729,5.6612904e-14,0.0000000
144.25731,5.6487959e-14,0.0000000
144.35732,5.6362711e-14,0.0000000
144.45733,5.6237698e-14,0.0000000
144.55734,5.6116334e-14,0.0000000
144.65735,5.5989006e-14,0.0000000
144.75736,5.5866044e-14,0.0000000
144.85738,5.5740273e-14,0.0000000
144.95739,5.5619082e-14,0.0000000
145.05740,5.5491789e-14,0.0000000
145.15741,5.5374733e-14,0.0000000
145.25742,5.5249300e-14,0.0000000
145.35743,5.5128408e-14,0.0000000
145.45745,5.5007600e-14,0.0000000
145.55746,5.4887455e-14,0.0000000
145.65747,5.4771597e-14,0.0000000
145.75748,5.4647757e-14,0.0000000
145.85749,5.4530063e-14,0.0000000
145.95751,5.4408715e-14,0.0000000
146.05752,5.4290801e-14,0.0000000
146.15753,5.4172535e-14,0.0000000
146.25754,5.4052282e-14,0.0000000
146.35756,5.3935185e-14,0.0000000
146.45757,5.3815021e-14,0.0000000
146.55758,5.3692800e-14,0.0000000
146.65759,5.3579848e-14,0.0000000
146.75760,5.3466585e-14,0.0000000
146.85762,5.3347083e-14,0.0000000
146.95763,5.3234739e-14,0.0000000
147.05764,5.3116940e-14,0.0000000
147.15765,5.2999116e-14,0.0000000
147.25767,5.2884453e-14,0.0000000
147.35768,5.2769185e-14,0.0000000
147.45769,5.2653867e-14,0.0000000
147.55770,5.2540970e-14,0.0000000
147.65772,5.2423087e-14,0.0000000
147.75773,5.2310575e-14,0.0000000
147.85774,5.2199667e-14,0.0000000
147.95776,5.2085471e-14,0.0000000
148.05777,5.1969890e-14,0.0000000
148.15778,5.1860528e-14,0.0000000
148.25779,5.1745450e-14,0.0000000
148.35781,5.1636273e-14,0.0000000
148.45782,5.1524890e-14,0.0000000
148.55783,5.1410946e-14,0.0000000
148.65785,5.1304745e-14,0.0000000
148.75786,5.1189601e-14,0.0000000
148.85787,5.1075184e-14,0.0000000
148.95788,5.0964675e-14,0.0000000
149.05790,5.0857777e-14,0.0000000
149.15791,5.0747746e-14,0.0000000
149.25792,5.0640771e-14,0.0000000
149.35794,5.0532466e-14,0.0000000
149.45795,5.0424088e-14,0.0000000
149.55796,5.0313442e-14,0.0000000
149.65798,5.0207880e-14,0.0000000
149.75799,5.0097915e-14,0.0000000
149.85800,4.9991625e-14,0.0000000
149.95802,4.9880260e-14,0.0000000
150.05803,4.9778096e-14,0.0000000
150.15804,4.9666271e-14,0.0000000
150.25806,4.9567220e-14,0.0000000
150.35807,4.9458024e-14,0.0000000
150.45809,4.9351304e-14,0.0000000
150.55810,4.9243604e-14,0.0000000
150.65811,4.9143822e-14,0.0000000
150.75813,4.9036574e-14,0.0000000
150.85814,4.8930968e-14,0.0000000
150.95815,4.8827460e-14,0.0000000
151.05817,4.8723516e-14,0.0000000
151.15818,4.8616487e-14,0.0000000
151.25819,4.8515507e-14,0.0000000
151.35821,4.8412842e-14,0.0000000
151.45822,4.8307031e-14,0.0000000
151.55824,4.8202015e-14,0.0000000
151.65825,4.8102483e-14,0.0000000
151.75826,4.8004734e-14,0.0000000
151.85828,4.7900832e-14,0.0000000
151.95829,4.7800100e-14,0.0000000
152.05831,4.7698122e-14,0.0000000
152.15832,4.7594969e-14,0.0000000
152.25833,4.7492184e-14,0.0000000
152.35835,4.7391770e-14,0.0000000
152.45836,4.7293100e-14,0.0000000
152.55838,4.7190348e-14,0.0000000
152.65839,4.7097760e-14,0.0000000
152.75841,4.6992609e-14,0.0000000
152.85842,4.6896229e-14,0.0000000
152.95843,4.6797442e-14,0.0000000
153.05845,4.6696776e-14,0.0000000
153.15846,4.6597522e-14,0.0000000
153.25848,4.6502258e-14,0.0000000
153.35849,4.6398973e-14,0.0000000
153.45851,4.6307734e-14,0.0000000
153.55852,4.6209081e-14,0.0000000
153.65854,4.6111053e-14,0.0000000
153.75855,4.6016228e-14,0.0000000
153.85856,4.5916057e-14,0.0000000
153.95858,4.5822941e-14,0.0000000
154.05859,4.5722992e-14,0.0000000
154.15861,4.5628090e-14,0.0000000
154.25862,4.5533492e-14,0.0000000
154.35864,4.5438385e-14,0.0000000
154.45865,4.5343256e-14,0.0000000
154.55867,4.5249442e-14,0.0000000
154.65868,4.5155495e-14,0.0000000
154.75870,4.5057884e-14,0.0000000
154.85871,4.4963361e-14,0.0000000
154.95873,4.4872801e-14,0.0000000
155.05874,4.4772197e-14,0.0000000
155.15876,4.4679801e-14,0.0000000
155.25877,4.4589349e-14,0.0000000
155.35879,4.4498863e-14,0.0000000
155.45880,4.4408386e-14,0.0000000
155.55882,4.4311030e-14,0.0000000
155.65883,4.4215712e-14,0.0000000
155.75885,4.4126278e-14,0.0000000
155.85886,4.4035411e-14,0.0000000
155.95888,4.3946863e-14,0.0000000
156.05889,4.3858392e-14,0.0000000
156.15891,4.3764787e-14,0.0000000
156.25892,4.3674507e-14,0.0000000
156.35894,4.3581704e-14,0.0000000
156.45895,4.3492441e-14,0.0000000
156.55897,4.3403212e-14,0.0000000
156.65898,4.3314051e-14,0.0000000
156.75900,4.3224067e-14,0.0000000
156.85901,4.3134589e-14,0.0000000
156.95903,4.3045204e-14,0.0000000
157.05904,4.2955712e-14,0.0000000
157.15906,4.2866310e-14,0.0000000
157.25908,4.2776798e-14,0.0000000
157.35909,4.2690551e-14,0.0000000
157.45911,4.2601886e-14,0.0000000
157.55912,4.2513299e-14,0.0000000
157.65914,4.2424620e-14,0.0000000
157.75915,4.2338528e-14,0.0000000
157.85917,4.2252378e-14,0.0000000
157.95918,4.2167908e-14,0.0000000
158.05920,4.2078701e-14,0.0000000
158.15922,4.1989596e-14,0.0000000
158.25923,4.1901031e-14,0.0000000
158.35925,4.1827008e-14,0.0000000
158.45926,4.1740784e-14,0.0000000
158.55928,4.1654214e-14,0.0000000
158.65930,4.1565547e-14,0.0000000
158.75931,4.1480474e-14,0.0000000
158.85933,4.1399263e-14,0.0000000
158.95934,4.1310989e-14,0.0000000
159.05936,4.1225915e-14,0.0000000
159.15937,4.1144222e-14,0.0000000
159.25939,4.1059778e-14,0.0000000
159.35941,4.0977267e-14,0.0000000
159.45942,4.0890474e-14,0.0000000
159.55944,4.0807928e-14,0.0000000
159.65945,4.0727014e-14,0.0000000
159.75947,4.0641218e-14,0.0000000
159.85949,4.0562379e-14,0.0000000
159.95950,4.0481054e-14,0.0000000
160.05952,4.0395076e-14,0.0000000
160.15954,4.0311618e-14,0.0000000
160.25955,4.0229439e-14,0.0000000
160.35957,4.0154301e-14,0.0000000
160.45958,4.0067386e-14,0.0000000
160.55960,3.9987663e-14,0.0000000
160.65962,3.9905952e-14,0.0000000
160.75963,3.9829303e-14,0.0000000
160.85965,3.9747567e-14,0.0000000
160.95967,3.9665427e-14,0.0000000
161.05968,3.9581016e-14,0.0000000
161.15970,3.9506638e-14,0.0000000
161.25971,3.9427025e-14,0.0000000
161.35973,3.9345715e-14,0.0000000
161.45975,3.9267585e-14,0.0000000
161.55976,3.9187067e-14,0.0000000
161.65978,3.9108771e-14,0.0000000
161.75980,3.9029839e-14,0.0000000
161.85981,3.8955001e-14,0.0000000
161.95983,3.8869757e-14,0.0000000
162.05985,3.8794500e-14,0.0000000
162.15986,3.8716169e-14,0.0000000
162.25988,3.8637128e-14,0.0000000
162.35990,3.8562556e-14,0.0000000
162.45991,3.8482914e-14,0.0000000
162.55993,3.8408980e-14,0.0000000
162.65995,3.8331010e-14,0.0000000
162.75996,3.8249395e-14,0.0000000
162.85998,3.8177057e-14,0.0000000
162.96000,3.8097891e-14,0.0000000
163.06001,3.8023099e-14,0.0000000
163.16003,3.7948355e-14,0.0000000
163.26005,3.7873258e-14,0.0000000
163.36007,3.7794703e-14,0.0000000
163.46008,3.7722469e-14,0.0000000
163.56010,3.7642915e-14,0.0000000
163.66012,3.7571818e-14,0.0000000
163.76013,3.7494853e-14,0.0000000
163.86015,3.7426506e-14,0.0000000
163.96017,3.7344164e-14,0.0000000
164.06018,3.7278385e-14,0.0000000
164.16020,3.7198199e-14,0.0000000
164.26022,3.7128042e-14,0.0000000
164.36024,3.7054274e-14,0.0000000
164.46025,3.6977920e-14,0.0000000
164.56027,3.6903958e-14,0.0000000
164.66029,3.6833983e-14,0.0000000
164.76030,3.6756431e-14,0.0000000
164.86032,3.6687611e-14,0.0000000
164.96034,3.6610245e-14,0.0000000
165.06036,3.6540192e-14,0.0000000
165.16037,3.6468483e-14,0.0000000
165.26039,3.6395363e-14,0.0000000
165.36041,3.6325230e-14,0.0000000
165.46043,3.6250827e-14,0.0000000
165.56044,3.6182890e-14,0.0000000
165.66046,3.6109046e-14,0.0000000
165.76048,3.6037294e-14,0.0000000
165.86049,3.5970722e-14,0.0000000
165.96051,3.5899892e-14,0.0000000
166.06053,3.5824186e-14,0.0000000
166.16055,3.5755301e-14,0.0000000
166.26056,3.5688010e-14,0.0000000
166.36058,3.5613208e-14,0.0000000
166.46060,3.5542464e-14,0.0000000
166.56062,3.5475676e-14,0.0000000
166.66064,3.5403516e-14,0.0000000
166.76065,3.5337436e-14,0.0000000
166.86067,3.5271872e-14,0.0000000
166.96069,3.5198656e-14,0.0000000
167.06071,3.5128024e-14,0.0000000
167.16072,3.5058142e-14,0.0000000
167.26074,3.4992563e-14,0.0000000
167.36076,3.4920226e-14,0.0000000
167.46078,3.4854512e-14,0.0000000
167.56079,3.4790142e-14,0.0000000
167.66081,3.4720702e-14,0.0000000
167.76083,3.4648816e-14,0.0000000
167.86085,3.4584375e-14,0.0000000
167.96087,3.4518745e-14,0.0000000
168.06088,3.4454792e-14,0.0000000
168.16090,3.4383316e-14,0.0000000
168.26092,3.4314222e-14,0.0000000
168.36094,3.4246011e-14,0.0000000
168.46095,3.4182038e-14,0.0000000
168.56097,3.4112964e-14,0.0000000
168.66099,3.4046504e-14,0.0000000
168.76101,3.3982516e-14,0.0000000
168.86103,3.3918523e-14,0.0000000
168.96104,3.3854533e-14,0.0000000
169.06106,3.3792915e-14,0.0000000
169.16108,3.3721331e-14,0.0000000
169.26110,3.3652717e-14,0.0000000
169.36112,3.3588213e-14,0.0000000
169.46114,3.3523756e-14,0.0000000
169.56115,3.3459300e-14,0.0000000
169.66117,3.3396085e-14,0.0000000
169.76119,3.3331912e-14,0.0000000
169.86121,3.3266054e-14,0.0000000
169.96123,3.3196819e-14,0.0000000
170.06124,3.3132339e-14,0.0000000
170.16126,3.3067811e-14,0.0000000
170.26128,3.3010534e-14,0.0000000
170.36130,3.2946055e-14,0.0000000
170.46132,3.2881572e-14,0.0000000
170.56134,3.2817084e-14,0.0000000
170.66135,3.2753872e-14,0.0000000
170.76137,3.2693341e-14,0.0000000
170.86139,3.2629284e-14,0.0000000
170.96141,3.2566251e-14,0.0000000
171.06143,3.2509698e-14,0.0000000
171.16145,3.2445196e-14,0.0000000
171.26146,3.2385142e-14,0.0000000
171.36148,3.2323380e-14,0.0000000
171.46150,3.2259649e-14,0.0000000
171.56152,3.2196487e-14,0.0000000
171.66154,3.2137874e-14,0.0000000
171.76156,3.2076504e-14,0.0000000
171.86158,3.2014135e-14,0.0000000
171.96159,3.1951355e-14,0.0000000
172.06161,3.1890670e-14,0.0000000
172.16163,3.1829556e-14,0.0000000
172.26165,3.1768625e-14,0.0000000
172.36167,3.1707754e-14,0.0000000
172.46169,3.1645082e-14,0.0000000
172.56171,3.1591726e-14,0.0000000
172.66172,3.1530962e-14,0.0000000
172.76174,3.1467770e-14,0.0000000
172.86176,3.1409315e-14,0.0000000
172.96178,3.1348516e-14,0.0000000
173.06180,3.1285315e-14,0.0000000
173.16182,3.1225724e-14,0.0000000
173.26184,3.1166074e-14,0.0000000
173.36186,3.1109359e-14,0.0000000
173.46187,3.1050490e-14,0.0000000
173.56189,3.0988656e-14,0.0000000
173.66191,3.0928400e-14,0.0000000
173.76193,3.0869357e-14,0.0000000
173.86195,3.0812266e-14,0.0000000
173.96197,3.0760630e-14,0.0000000
174.06199,3.0702325e-14,0.0000000
174.16201,3.0639089e-14,0.0000000
174.26203,3.0582997e-14,0.0000000
174.36204,3.0523783e-14,0.0000000
174.46206,3.0468776e-14,0.0000000
174.56208,3.0405528e-14,0.0000000
174.66210,3.0355762e-14,0.0000000
174.76212,3.0294290e-14,0.0000000
174.86214,3.0238590e-14,0.0000000
174.96216,3.0180069e-14,0.0000000
175.06218,3.0120717e-14,0.0000000
175.16220,3.0067233e-14,0.0000000
175.26222,3.0012244e-14,0.0000000
175.36224,2.9956177e-14,0.0000000
175.46225,2.9893200e-14,0.0000000
175.56227,2.9842215e-14,0.0000000
175.66229,2.9783814e-14,0.0000000
175.76231,2.9732985e-14,0.0000000
175.86233,2.9673823e-14,0.0000000
175.96235,2.9620293e-14,0.0000000
176.06237,2.9564080e-14,0.0000000
176.16239,2.9504539e-14,0.0000000
176.26241,2.9452917e-14,0.0000000
176.36243,2.9400753e-14,0.0000000
176.46245,2.9342839e-14,0.0000000
176.56247,2.9286443e-14,0.0000000
176.66249,2.9228850e-14,0.0000000
176.76251,2.9182219e-14,0.0000000
176.86252,2.9125440e-14,0.0000000
176.96254,2.9065390e-14,0.0000000
177.06256,2.9015647e-14,0.0000000
177.16258,2.8961105e-14,0.0000000
177.26260,2.8906336e-14,0.0000000
177.36262,2.8856553e-14,0.0000000
177.46264,2.8794561e-14,0.0000000
177.56266,2.8747227e-14,0.0000000
177.66268,2.8697494e-14,0.0000000
177.76270,2.8636729e-14,0.0000000
177.86272,2.8584591e-14,0.0000000
177.96274,2.8534031e-14,0.0000000
178.06276,2.8479186e-14,0.0000000
178.16278,2.8424555e-14,0.0000000
178.26280,2.8374866e-14,0.0000000
178.36282,2.8320059e-14,0.0000000
178.46284,2.8270245e-14,0.0000000
178.56286,2.8217184e-14,0.0000000
178.66288,2.8163021e-14,0.0000000
178.76290,2.8111083e-14,0.0000000
178.86291,2.8063722e-14,0.0000000
178.96293,2.8007509e-14,0.0000000
179.06295,2.7955489e-14,0.0000000
179.16297,2.7909539e-14,0.0000000
179.26299,2.7854653e-14,0.0000000
179.36301,2.7805244e-14,0.0000000
179.46303,2.7751661e-14,0.0000000
179.56305,2.7696965e-14,0.0000000
179.66307,2.7653139e-14,0.0000000
179.76309,2.7593924e-14,0.0000000
179.86311,2.7549324e-14,0.0000000
179.96313,2.7499228e-14,0.0000000
180.06315,2.7447435e-14,0.0000000
180.16317,2.7394598e-14,0.0000000
180.26319,2.7345434e-14,0.0000000
180.36321,2.7295189e-14,0.0000000
180.46323,2.7249099e-14,0.0000000
180.56325,2.7193352e-14,0.0000000
180.66327,2.7140674e-14,0.0000000
180.76329,2.7098661e-14,0.0000000
180.86331,2.7045047e-14,0.0000000
180.96333,2.7003042e-14,0.0000000
181.06335,2.6946068e-14,0.0000000
181.16337,2.6895546e-14,0.0000000
181.26339,2.6848452e-14,0.0000000
181.36341,2.6799887e-14,0.0000000
181.46343,2.6753731e-14,0.0000000
181.56345,2.6697868e-14,0.0000000
181.66347,2.6654705e-14,0.0000000
181.76349,2.6605171e-14,0.0000000
181.86351,2.6556300e-14,0.0000000
181.96353,2.6511361e-14,0.0000000
182.06355,2.6457724e-14,0.0000000
182.16357,2.6416608e-14,0.0000000
182.26359,2.6358619e-14,0.0000000
182.36361,2.6314649e-14,0.0000000
182.46363,2.6260997e-14,0.0000000
182.56365,2.6219878e-14,0.0000000
182.66367,2.6166713e-14,0.0000000
182.76369,2.6125095e-14,0.0000000
182.86371,2.6073932e-14,0.0000000
182.96373,2.6030273e-14,0.0000000
183.06375,2.5981146e-14,0.0000000
183.16377,2.5935498e-14,0.0000000
183.26379,2.5886860e-14,0.0000000
183.36381,2.5840651e-14,0.0000000
183.46383,2.5792030e-14,0.0000000
183.56386,2.5743493e-14,0.0000000
183.66388,2.5693538e-14,0.0000000
183.76390,2.5651725e-14,0.0000000
183.86392,2.5604160e-14,0.0000000
183.96394,2.5556893e-14,0.0000000
184.06396,2.5516850e-14,0.0000000
184.16398,2.5465644e-14,0.0000000
184.26400,2.5425754e-14,0.0000000
184.36402,2.5373282e-14,0.0000000
184.46404,2.5333366e-14,0.0000000
184.56406,2.5281342e-14,0.0000000
184.66408,2.5240998e-14,0.0000000
184.76410,2.5193586e-14,0.0000000
184.86412,2.5148599e-14,0.0000000
184.96414,2.5101166e-14,0.0000000
185.06416,2.5057537e-14,0.0000000
185.16418,2.5008781e-14,0.0000000
185.26420,2.4968847e-14,0.0000000
185.36422,2.4924729e-14,0.0000000
185.46424,2.4876444e-14,0.0000000
185.56426,2.4833659e-14,0.0000000
185.66428,2.4784571e-14,0.0000000
185.76431,2.4744043e-14,0.0000000
185.86433,2.4695911e-14,0.0000000
185.96435,2.4651619e-14,0.0000000
186.06437,2.4614541e-14,0.0000000
186.16439,2.4563316e-14,0.0000000
186.26441,2.4526372e-14,0.0000000
186.36443,2.4482855e-14,0.0000000
186.46445,2.4434721e-14,0.0000000
186.56447,2.4393946e-14,0.0000000
186.66449,2.4346462e-14,0.0000000
186.76451,2.4301982e-14,0.0000000
186.86453,2.4262113e-14,0.0000000
186.96455,2.4216888e-14,0.0000000
187.06457,2.4176746e-14,0.0000000
187.16460,2.4128922e-14,0.0000000
187.26462,2.4085444e-14,0.0000000
187.36464,2.4048094e-14,0.0000000
187.46466,2.4005476e-14,0.0000000
187.56468,2.3959052e-14,0.0000000
187.66470,2.3919074e-14,0.0000000
187.76472,2.3871760e-14,0.0000000
187.86474,2.3826932e-14,0.0000000
187.96476,2.3792353e-14,0.0000000
188.06478,2.3748617e-14,0.0000000
188.16480,2.3705988e-14,0.0000000
188.26482,2.3661133e-14,0.0000000
188.36485,2.3623996e-14,0.0000000
188.46487,2.3576499e-14,0.0000000
188.56489,2.3538409e-14,0.0000000
188.66491,2.3497140e-14,0.0000000
188.76493,2.3450859e-14,0.0000000
188.86495,2.3414913e-14,0.0000000
188.96497,2.3369430e-14,0.0000000
189.06499,2.3324753e-14,0.0000000
189.16501,2.3289943e-14,0.0000000
189.26503,2.3248938e-14,0.0000000
189.36506,2.3203890e-14,0.0000000
189.46508,2.3164149e-14,0.0000000
189.56510,2.3125347e-14,0.0000000
189.66512,2.3077948e-14,0.0000000
189.76514,2.3042336e-14,0.0000000
189.86516,2.3003522e-14,0.0000000
189.96518,2.2961005e-14,0.0000000
190.06520,2.2913730e-14,0.0000000
190.16522,2.2880158e-14,0.0000000
190.26525,2.2842803e-14,0.0000000
190.36527,2.2796472e-14,0.0000000
190.46529,2.2755561e-14,0.0000000
190.56531,2.2716610e-14,0.0000000
190.66533,2.2678505e-14,0.0000000
190.76535,2.2636444e-14,0.0000000
190.86537,2.2599736e-14,0.0000000
190.96539,2.2558109e-14,0.0000000
191.06541,2.2519910e-14,0.0000000
191.16544,2.2477800e-14,0.0000000
191.26546,2.2438930e-14,0.0000000
191.36548,2.2402370e-14,0.0000000
191.46550,2.2368373e-14,0.0000000
191.56552,2.2316961e-14,0.0000000
191.66554,2.2279187e-14,0.0000000
191.76556,2.2246391e-14,0.0000000
191.86558,2.2207502e-14,0.0000000
191.96561,2.2161005e-14,0.0000000
192.06563,2.2127159e-14,0.0000000
192.16565,2.2086113e-14,0.0000000
192.26567,2.2046596e-14,0.0000000
192.36569,2.2014890e-14,0.0000000
192.46571,2.1968498e-14,0.0000000
192.56573,2.1932476e-14,0.0000000
192.66576,2.1896351e-14,0.0000000
192.76578,2.1856582e-14,0.0000000
192.86580,2.1820125e-14,0.0000000
192.96582,2.1782565e-14,0.0000000
193.06584,2.1742828e-14,0.0000000
193.16586,2.1701861e-14,0.0000000
193.26588,2.1667306e-14,0.0000000
193.36591,2.1630500e-14,0.0000000
193.46593,2.1588386e-14,0.0000000
193.56595,2.1551549e-14,0.0000000
193.66597,2.1515712e-14,0.0000000
