wave,flux,fluxerr
135.05642,6.7593736e-15,0.0000000
135.15643,6.7502193e-15,0.0000000
135.25644,6.7406638e-15,0.0000000
135.35644,6.7310328e-15,0.0000000
135.45645,6.7215513e-15,0.0000000
135.55646,6.7121116e-15,0.0000000
135.65647,6.7020719e-15,0.0000000
135.75648,6.6921778e-15,0.0000000
135.85648,6.6825496e-15,0.0000000
135.95649,6.6729344e-15,0.0000000
136.05650,6.6632036e-15,0.0000000
136.15651,6.6532319e-15,0.0000000
136.25652,6.6432092e-15,0.0000000
136.35652,6.6336254e-15,0.0000000
136.45653,6.6232696e-15,0.0000000
136.55654,6.6130696e-15,0.0000000
136.65655,6.6037221e-15,0.0000000
136.75656,6.5933582e-15,0.0000000
136.85657,6.5832111e-15,0.0000000
136.95657,6.5731095e-15,0.0000000
137.05658,6.5630209e-15,0.0000000
137.15659,6.5527730e-15,0.0000000
137.25660,6.5424843e-15,0.0000000
137.35661,6.5324808e-15,0.0000000
137.45662,6.5226737e-15,0.0000000
137.55663,6.5121978e-15,0.0000000
137.65663,6.5018399e-15,0.0000000
137.75664,6.4919393e-15,0.0000000
137.85665,6.4814218e-15,0.0000000
137.95666,6.4710421e-15,0.0000000
138.05667,6.4613823e-15,0.0000000
138.15668,6.4509228e-15,0.0000000
138.25669,6.4409370e-15,0.0000000
138.35670,6.4302399e-15,0.0000000
138.45671,6.4202011e-15,0.0000000
138.55671,6.4096763e-15,0.0000000
138.65672,6.3996501e-15,0.0000000
138.75673,6.3890627e-15,0.0000000
138.85674,6.3792416e-15,0.0000000
138.95675,6.3684763e-15,0.0000000
139.05676,6.3583003e-15,0.0000000
139.15677,6.3477769e-15,0.0000000
139.25678,6.3376675e-15,0.0000000
139.35679,6.3271252e-15,0.0000000
139.45680,6.3168135e-15,0.0000000
139.55681,6.3063007e-15,0.0000000
139.65682,6.2963194e-15,0.0000000
139.75683,6.2858089e-15,0.0000000
139.85684,6.2753325e-15,0.0000000
139.95685,6.2650985e-15,0.0000000
140.05686,6.2547787e-15,0.0000000
140.15687,6.2445530e-15,0.0000000
140.25688,6.2341573e-15,0.0000000
140.35689,6.2238897e-15,0.0000000
140.45690,6.2137400e-15,0.0000000
140.55691,6.2033927e-15,0.0000000
140.65692,6.1930627e-15,0.0000000
140.75693,6.1824923e-15,0.0000000
140.85694,6.1722852e-15,0.0000000
140.95695,6.1622742e-15,0.0000000
141.05696,6.1518739e-15,0.0000000
141.15697,6.1420359e-15,0.0000000
141.25698,6.1316185e-15,0.0000000
141.35699,6.1211388e-15,0.0000000
141.45700,6.1109490e-15,0.0000000
141.55701,6.1008239e-15,0.0000000
141.65702,6.0907072e-15,0.0000000
141.75703,6.0806142e-15,0.0000000
141.85704,6.0703161e-15,0.0000000
141.95705,6.0600777e-15,0.0000000
142.05706,6.0495874e-15,0.0000000
142.15707,6.0398651e-15,0.0000000
142.25708,6.0297107e-15,0.0000000
142.35709,6.0196112e-15,0.0000000
142.45711,6.0093340e-15,0.0000000
142.55712,5.9989467e-15,0.0000000
142.65713,5.9889066e-15,0.0000000
142.75714,5.9788992e-15,0.0000000
142.85715,5.9688641e-15,0.0000000
142.95716,5.9587393e-15,0.0000000
143.05717,5.9488140e-15,0.0000000
143.15718,5.9386831e-15,0.0000000
143.25719,5.9289770e-15,0.0000000
143.35720,5.9186682e-15,0.0000000
143.45722,5.9088139e-15,0.0000000
143.55723,5.8984429e-15,0.0000000
143.65724,5.8885472e-15,0.0000000
143.75725,5.8785558e-15,0.0000000
143.85726,5.8687742e-15,0.0000000
143.95727,5.8586723e-15,0.0000000
144.05728,5.8487868e-15,0.0000000
144.15729,5.8387275e-15,0.0000000
144.25731,5.8287423e-15,0.0000000
144.35732,5.8188858e-15,0.0000000
144.45733,5.8092003e-15,0.0000000
144.55734,5.7992616e-15,0.0000000
144.65735,5.7896280e-15,0.0000000
144.75736,5.7796575e-15,0.0000000
144.85738,5.7700284e-15,0.0000000
144.95739,5.7598907e-15,0.0000000
145.05740,5.7503830e-15,0.0000000
145.15741,5.7400092e-15,0.0000000
145.25742,5.7305647e-15,0.0000000
145.35743,5.7207726e-15,0.0000000
145.45745,5.7112461e-15,0.0000000
145.55746,5.7014875e-15,0.0000000
145.65747,5.6917040e-15,0.0000000
145.75748,5.6820685e-15,0.0000000
145.85749,5.6722041e-15,0.0000000
145.95751,5.6627550e-15,0.0000000
146.05752,5.6531249e-15,0.0000000
146.15753,5.6430643e-15,0.0000000
146.25754,5.6338046e-15,0.0000000
146.35756,5.6242936e-15,0.0000000
146.45757,5.6143845e-15,0.0000000
146.55758,5.6047958e-15,0.0000000
146.65759,5.5952491e-15,0.0000000
146.75760,5.5858550e-15,0.0000000
146.85762,5.5762992e-15,0.0000000
146.95763,5.5666860e-15,0.0000000
147.05764,5.5570865e-15,0.0000000
147.15765,5.5474912e-15,0.0000000
147.25767,5.5383995e-15,0.0000000
147.35768,5.5288011e-15,0.0000000
147.45769,5.5191262e-15,0.0000000
147.55770,5.5100569e-15,0.0000000
147.65772,5.5004050e-15,0.0000000
147.75773,5.4913061e-15,0.0000000
147.85774,5.4816429e-15,0.0000000
147.95776,5.4725062e-15,0.0000000
148.05777,5.4628280e-15,0.0000000
148.15778,5.4537119e-15,0.0000000
148.25779,5.4441613e-15,0.0000000
148.35781,5.4352316e-15,0.0000000
148.45782,5.4260844e-15,0.0000000
148.55783,5.4163746e-15,0.0000000
148.65785,5.4074018e-15,0.0000000
148.75786,5.3978926e-15,0.0000000
148.85787,5.3889129e-15,0.0000000
148.95788,5.3794074e-15,0.0000000
149.05790,5.3707364e-15,0.0000000
149.15791,5.3612085e-15,0.0000000
149.25792,5.3522197e-15,0.0000000
149.35794,5.3432187e-15,0.0000000
149.45795,5.3336615e-15,0.0000000
149.55796,5.3248028e-15,0.0000000
149.65798,5.3159456e-15,0.0000000
149.75799,5.3063580e-15,0.0000000
149.85800,5.2973922e-15,0.0000000
149.95802,5.2886692e-15,0.0000000
150.05803,5.2796044e-15,0.0000000
150.15804,5.2708732e-15,0.0000000
150.25806,5.2613051e-15,0.0000000
150.35807,5.2522652e-15,0.0000000
150.45809,5.2435144e-15,0.0000000
150.55810,5.2344604e-15,0.0000000
150.65811,5.2257053e-15,0.0000000
150.75813,5.2166170e-15,0.0000000
150.85814,5.2078974e-15,0.0000000
150.95815,5.1991349e-15,0.0000000
151.05817,5.1899986e-15,0.0000000
151.15818,5.1812513e-15,0.0000000
151.25819,5.1721598e-15,0.0000000
151.35821,5.1633601e-15,0.0000000
151.45822,5.1548817e-15,0.0000000
151.55824,5.1462654e-15,0.0000000
151.65825,5.1372283e-15,0.0000000
151.75826,5.1284070e-15,0.0000000
151.85828,5.1196254e-15,0.0000000
151.95829,5.1113264e-15,0.0000000
152.05831,5.1022545e-15,0.0000000
152.15832,5.0934294e-15,0.0000000
152.25833,5.0848074e-15,0.0000000
152.35835,5.0761664e-15,0.0000000
152.45836,5.0677259e-15,0.0000000
152.55838,5.0591241e-15,0.0000000
152.65839,5.0504817e-15,0.0000000
152.75841,5.0417142e-15,0.0000000
152.85842,5.0328854e-15,0.0000000
152.95843,5.0247656e-15,0.0000000
153.05845,5.0160921e-15,0.0000000
153.15846,5.0074945e-15,0.0000000
153.25848,4.9993540e-15,0.0000000
153.35849,4.9906836e-15,0.0000000
153.45851,4.9819649e-15,0.0000000
153.55852,4.9738687e-15,0.0000000
153.65854,4.9649294e-15,0.0000000
153.75855,4.9568762e-15,0.0000000
153.85856,4.9482144e-15,0.0000000
153.95858,4.9401627e-15,0.0000000
154.05859,4.9315293e-15,0.0000000
154.15861,4.9233764e-15,0.0000000
154.25862,4.9146535e-15,0.0000000
154.35864,4.9065066e-15,0.0000000
154.45865,4.8981963e-15,0.0000000
154.55867,4.8896144e-15,0.0000000
154.65868,4.8814897e-15,0.0000000
154.75870,4.8729832e-15,0.0000000
154.85871,4.8648848e-15,0.0000000
154.95873,4.8566917e-15,0.0000000
155.05874,4.8484262e-15,0.0000000
155.15876,4.8401144e-15,0.0000000
155.25877,4.8318716e-15,0.0000000
155.35879,4.8236733e-15,0.0000000
155.45880,4.8156963e-15,0.0000000
155.55882,4.8076048e-15,0.0000000
155.65883,4.7994238e-15,0.0000000
155.75885,4.7910667e-15,0.0000000
155.85886,4.7828300e-15,0.0000000
155.95888,4.7747911e-15,0.0000000
156.05889,4.7669851e-15,0.0000000
156.15891,4.7587952e-15,0.0000000
156.25892,4.7505106e-15,0.0000000
156.35894,4.7424610e-15,0.0000000
156.45895,4.7347494e-15,0.0000000
156.55897,4.7267384e-15,0.0000000
156.65898,4.7187496e-15,0.0000000
156.75900,4.7105930e-15,0.0000000
156.85901,4.7026065e-15,0.0000000
156.95903,4.6948139e-15,0.0000000
157.05904,4.6865630e-15,0.0000000
157.15906,4.6788073e-15,0.0000000
157.25908,4.6707683e-15,0.0000000
157.35909,4.6627460e-15,0.0000000
157.45911,4.6550170e-15,0.0000000
157.55912,4.6471166e-15,0.0000000
157.65914,4.6393189e-15,0.0000000
157.75915,4.6314851e-15,0.0000000
157.85917,4.6238693e-15,0.0000000
157.95918,4.6160756e-15,0.0000000
158.05920,4.6082834e-15,0.0000000
158.15922,4.6002185e-15,0.0000000
158.25923,4.5925137e-15,0.0000000
158.35925,4.5849956e-15,0.0000000
158.45926,4.5772505e-15,0.0000000
158.55928,4.5693811e-15,0.0000000
158.65930,4.5617218e-15,0.0000000
158.75931,4.5540254e-15,0.0000000
158.85933,4.5462783e-15,0.0000000
158.95934,4.5384887e-15,0.0000000
159.05936,4.5312366e-15,0.0000000
159.15937,4.5235086e-15,0.0000000
159.25939,4.5157387e-15,0.0000000
159.35941,4.5081407e-15,0.0000000
159.45942,4.5006586e-15,0.0000000
159.55944,4.4931961e-15,0.0000000
159.65945,4.4853778e-15,0.0000000
159.75947,4.4779958e-15,0.0000000
159.85949,4.4704165e-15,0.0000000
159.95950,4.4627668e-15,0.0000000
160.05952,4.4551064e-15,0.0000000
160.15954,4.4478861e-15,0.0000000
160.25955,4.4403766e-15,0.0000000
160.35957,4.4332388e-15,0.0000000
160.45958,4.4253131e-15,0.0000000
160.55960,4.4177572e-15,0.0000000
160.65962,4.4106562e-15,0.0000000
160.75963,4.4030732e-15,0.0000000
160.85965,4.3959561e-15,0.0000000
160.95967,4.3884434e-15,0.0000000
161.05968,4.3812126e-15,0.0000000
161.15970,4.3736816e-15,0.0000000
161.25971,4.3664484e-15,0.0000000
161.35973,4.3589641e-15,0.0000000
161.45975,4.3516868e-15,0.0000000
161.55976,4.3442356e-15,0.0000000
161.65978,4.3371706e-15,0.0000000
161.75980,4.3299809e-15,0.0000000
161.85981,4.3225641e-15,0.0000000
161.95983,4.3155194e-15,0.0000000
162.05985,4.3081112e-15,0.0000000
162.15986,4.3008122e-15,0.0000000
162.25988,4.2937171e-15,0.0000000
162.35990,4.2863657e-15,0.0000000
162.45991,4.2791680e-15,0.0000000
162.55993,4.2721848e-15,0.0000000
162.65995,4.2650962e-15,0.0000000
162.75996,4.2575559e-15,0.0000000
162.85998,4.2504794e-15,0.0000000
162.96000,4.2436526e-15,0.0000000
163.06001,4.2365104e-15,0.0000000
163.16003,4.2293700e-15,0.0000000
163.26005,4.2222237e-15,0.0000000
163.36007,4.2153955e-15,0.0000000
163.46008,4.2084062e-15,0.0000000
163.56010,4.2009250e-15,0.0000000
163.66012,4.1939142e-15,0.0000000
163.76013,4.1872622e-15,0.0000000
163.86015,4.1802790e-15,0.0000000
163.96017,4.1732482e-15,0.0000000
164.06018,4.1657649e-15,0.0000000
164.16020,4.1590855e-15,0.0000000
164.26022,4.1520930e-15,0.0000000
164.36024,4.1451482e-15,0.0000000
164.46025,4.1383725e-15,0.0000000
164.56027,4.1313189e-15,0.0000000
164.66029,4.1243500e-15,0.0000000
164.76030,4.1176534e-15,0.0000000
164.86032,4.1106193e-15,0.0000000
164.96034,4.1037525e-15,0.0000000
165.06036,4.0969256e-15,0.0000000
165.16037,4.0900901e-15,0.0000000
165.26039,4.0832315e-15,0.0000000
165.36041,4.0764958e-15,0.0000000
165.46043,4.0698082e-15,0.0000000
165.56044,4.0628076e-15,0.0000000
165.66046,4.0563526e-15,0.0000000
165.76048,4.0495238e-15,0.0000000
165.86049,4.0426493e-15,0.0000000
165.96051,4.0358070e-15,0.0000000
166.06053,4.0288740e-15,0.0000000
166.16055,4.0225841e-15,0.0000000
166.26056,4.0157139e-15,0.0000000
166.36058,4.0090083e-15,0.0000000
166.46060,4.0022767e-15,0.0000000
166.56062,3.9957017e-15,0.0000000
166.66064,3.9890861e-15,0.0000000
166.76065,3.9823521e-15,0.0000000
166.86067,3.9758517e-15,0.0000000
166.96069,3.9691374e-15,0.0000000
167.06071,3.9624421e-15,0.0000000
167.16072,3.9562467e-15,0.0000000
167.26074,3.9491944e-15,0.0000000
167.36076,3.9425288e-15,0.0000000
167.46078,3.9364223e-15,0.0000000
167.56079,3.9294957e-15,0.0000000
167.66081,3.9228913e-15,0.0000000
167.76083,3.9168521e-15,0.0000000
167.86085,3.9101082e-15,0.0000000
167.96087,3.9032827e-15,0.0000000
168.06088,3.8972389e-15,0.0000000
168.16090,3.8906056e-15,0.0000000
168.26092,3.8842253e-15,0.0000000
168.36094,3.8776066e-15,0.0000000
168.46095,3.8710864e-15,0.0000000
168.56097,3.8649071e-15,0.0000000
168.66099,3.8582647e-15,0.0000000
168.76101,3.8520623e-15,0.0000000
168.86103,3.8452453e-15,0.0000000
168.96104,3.8391967e-15,0.0000000
169.06106,3.8325576e-15,0.0000000
169.16108,3.8264506e-15,0.0000000
169.26110,3.8198696e-15,0.0000000
169.36112,3.8137614e-15,0.0000000
169.46114,3.8072353e-15,0.0000000
169.56115,3.8010376e-15,0.0000000
169.66117,3.7949539e-15,0.0000000
169.76119,3.7883120e-15,0.0000000
169.86121,3.7822562e-15,0.0000000
169.96123,3.7761640e-15,0.0000000
170.06124,3.7695316e-15,0.0000000
170.16126,3.7634163e-15,0.0000000
170.26128,3.7573516e-15,0.0000000
170.36130,3.7507152e-15,0.0000000
170.46132,3.7446063e-15,0.0000000
170.56134,3.7385190e-15,0.0000000
170.66135,3.7324613e-15,0.0000000
170.76137,3.7257896e-15,0.0000000
170.86139,3.7197098e-15,0.0000000
170.96141,3.7136123e-15,0.0000000
171.06143,3.7075213e-15,0.0000000
171.16145,3.7014155e-15,0.0000000
171.26146,3.6951405e-15,0.0000000
171.36148,3.6890408e-15,0.0000000
171.46150,3.6829899e-15,0.0000000
171.56152,3.6770607e-15,0.0000000
171.66154,3.6708608e-15,0.0000000
171.76156,3.6645365e-15,0.0000000
171.86158,3.6585903e-15,0.0000000
171.96159,3.6526181e-15,0.0000000
172.06161,3.6468469e-15,0.0000000
172.16163,3.6404416e-15,0.0000000
172.26165,3.6344312e-15,0.0000000
172.36167,3.6284688e-15,0.0000000
172.46169,3.6224851e-15,0.0000000
172.56171,3.6165079e-15,0.0000000
172.66172,3.6107621e-15,0.0000000
172.76174,3.6048927e-15,0.0000000
172.86176,3.5987162e-15,0.0000000
172.96178,3.5923660e-15,0.0000000
173.06180,3.5864233e-15,0.0000000
173.16182,3.5807878e-15,0.0000000
173.26184,3.5747747e-15,0.0000000
173.36186,3.5687912e-15,0.0000000
173.46187,3.5631475e-15,0.0000000
173.56189,3.5571281e-15,0.0000000
173.66191,3.5511961e-15,0.0000000
173.76193,3.5454755e-15,0.0000000
173.86195,3.5395222e-15,0.0000000
173.96197,3.5335435e-15,0.0000000
174.06199,3.5279099e-15,0.0000000
174.16201,3.5219825e-15,0.0000000
174.26203,3.5164613e-15,0.0000000
174.36204,3.5108477e-15,0.0000000
174.46206,3.5048021e-15,0.0000000
174.56208,3.4991850e-15,0.0000000
174.66210,3.4931683e-15,0.0000000
174.76212,3.4875331e-15,0.0000000
174.86214,3.4815166e-15,0.0000000
174.96216,3.4763762e-15,0.0000000
175.06218,3.4704207e-15,0.0000000
175.16220,3.4645959e-15,0.0000000
175.26222,3.4587495e-15,0.0000000
175.36224,3.4528046e-15,0.0000000
175.46225,3.4476905e-15,0.0000000
175.56227,3.4419350e-15,0.0000000
175.66229,3.4361738e-15,0.0000000
175.76231,3.4303537e-15,0.0000000
175.86233,3.4247452e-15,0.0000000
175.96235,3.4188287e-15,0.0000000
176.06237,3.4138690e-15,0.0000000
176.16239,3.4079479e-15,0.0000000
176.26241,3.4024171e-15,0.0000000
176.36243,3.3965015e-15,0.0000000
176.46245,3.3909568e-15,0.0000000
176.56247,3.3856471e-15,0.0000000
176.66249,3.3800481e-15,0.0000000
176.76251,3.3741697e-15,0.0000000
176.86252,3.3686217e-15,0.0000000
176.96254,3.3634566e-15,0.0000000
177.06256,3.3577249e-15,0.0000000
177.16258,3.3521582e-15,0.0000000
177.26260,3.3468389e-15,0.0000000
177.36262,3.3412767e-15,0.0000000
177.46264,3.3354443e-15,0.0000000
177.56266,3.3303509e-15,0.0000000
177.66268,3.3247866e-15,0.0000000
177.76270,3.3188745e-15,0.0000000
177.86272,3.3138989e-15,0.0000000
177.96274,3.3083219e-15,0.0000000
178.06276,3.3028777e-15,0.0000000
178.16278,3.2974195e-15,0.0000000
178.26280,3.2918322e-15,0.0000000
178.36282,3.2865516e-15,0.0000000
178.46284,3.2809127e-15,0.0000000
178.56286,3.2759071e-15,0.0000000
178.66288,3.2703200e-15,0.0000000
178.76290,3.2650180e-15,0.0000000
178.86291,3.2593776e-15,0.0000000
178.96293,3.2543336e-15,0.0000000
179.06295,3.2487621e-15,0.0000000
179.16297,3.2434657e-15,0.0000000
179.26299,3.2378583e-15,0.0000000
179.36301,3.2328247e-15,0.0000000
179.46303,3.2272166e-15,0.0000000
179.56305,3.2221881e-15,0.0000000
179.66307,3.2171656e-15,0.0000000
179.76309,3.2115333e-15,0.0000000
179.86311,3.2063458e-15,0.0000000
179.96313,3.2008477e-15,0.0000000
180.06315,3.1959004e-15,0.0000000
180.16317,3.1903126e-15,0.0000000
180.26319,3.1853002e-15,0.0000000
180.36321,3.1797353e-15,0.0000000
180.46323,3.1748187e-15,0.0000000
180.56325,3.1693203e-15,0.0000000
180.66327,3.1640877e-15,0.0000000
180.76329,3.1585568e-15,0.0000000
180.86331,3.1536525e-15,0.0000000
180.96333,3.1482857e-15,0.0000000
181.06335,3.1432264e-15,0.0000000
181.16337,3.1383346e-15,0.0000000
181.26339,3.1329901e-15,0.0000000
181.36341,3.1275385e-15,0.0000000
181.46343,3.1224730e-15,0.0000000
181.56345,3.1171124e-15,0.0000000
181.66347,3.1121930e-15,0.0000000
181.76349,3.1071467e-15,0.0000000
181.86351,3.1017336e-15,0.0000000
181.96353,3.0968020e-15,0.0000000
182.06355,3.0917820e-15,0.0000000
182.16357,3.0867031e-15,0.0000000
182.26359,3.0813923e-15,0.0000000
182.36361,3.0764799e-15,0.0000000
182.46363,3.0713400e-15,0.0000000
182.56365,3.0662501e-15,0.0000000
182.66367,3.0610482e-15,0.0000000
182.76369,3.0561107e-15,0.0000000
182.86371,3.0511870e-15,0.0000000
182.96373,3.0457595e-15,0.0000000
183.06375,3.0406999e-15,0.0000000
183.16377,3.0357668e-15,0.0000000
183.26379,3.0307848e-15,0.0000000
183.36381,3.0258183e-15,0.0000000
183.46383,3.0207049e-15,0.0000000
183.56386,3.0156829e-15,0.0000000
183.66388,3.0104369e-15,0.0000000
183.76390,3.0056669e-15,0.0000000
183.86392,3.0006249e-15,0.0000000
183.96394,2.9957795e-15,0.0000000
184.06396,2.9907879e-15,0.0000000
184.16398,2.9856727e-15,0.0000000
184.26400,2.9806465e-15,0.0000000
184.36402,2.9756379e-15,0.0000000
184.46404,2.9707986e-15,0.0000000
184.56406,2.9659498e-15,0.0000000
184.66408,2.9609314e-15,0.0000000
184.76410,2.9558330e-15,0.0000000
184.86412,2.9507746e-15,0.0000000
184.96414,2.9459143e-15,0.0000000
185.06416,2.9410995e-15,0.0000000
185.16418,2.9364335e-15,0.0000000
185.26420,2.9314609e-15,0.0000000
185.36422,2.9267617e-15,0.0000000
185.46424,2.9217740e-15,0.0000000
185.56426,2.9166981e-15,0.0000000
185.66428,2.9116440e-15,0.0000000
185.76431,2.9066973e-15,0.0000000
185.86433,2.9020889e-15,0.0000000
185.96435,2.8972229e-15,0.0000000
186.06437,2.8923370e-15,0.0000000
186.16439,2.8874516e-15,0.0000000
186.26441,2.8825732e-15,0.0000000
186.36443,2.8778538e-15,0.0000000
186.46445,2.8731161e-15,0.0000000
186.56447,2.8681619e-15,0.0000000
186.66449,2.8633277e-15,0.0000000
186.76451,2.8584816e-15,0.0000000
186.86453,2.8537601e-15,0.0000000
186.96455,2.8489841e-15,0.0000000
187.06457,2.8440643e-15,0.0000000
187.16460,2.8393811e-15,0.0000000
187.26462,2.8344542e-15,0.0000000
187.36464,2.8296608e-15,0.0000000
187.46466,2.8250824e-15,0.0000000
187.56468,2.8204836e-15,0.0000000
187.66470,2.8156382e-15,0.0000000
187.76472,2.8109499e-15,0.0000000
187.86474,2.8060575e-15,0.0000000
187.96476,2.8013257e-15,0.0000000
188.06478,2.7965198e-15,0.0000000
188.16480,2.7915916e-15,0.0000000
188.26482,2.7873545e-15,0.0000000
188.36485,2.7827429e-15,0.0000000
188.46487,2.7779415e-15,0.0000000
188.56489,2.7731691e-15,0.0000000
188.66491,2.7683429e-15,0.0000000
188.76493,2.7637260e-15,0.0000000
188.86495,2.7590557e-15,0.0000000
188.96497,2.7542089e-15,0.0000000
189.06499,2.7496837e-15,0.0000000
189.16501,2.7448463e-15,0.0000000
189.26503,2.7403389e-15,0.0000000
189.36506,2.7358267e-15,0.0000000
189.46508,2.7309809e-15,0.0000000
189.56510,2.7264633e-15,0.0000000
189.66512,2.7216446e-15,0.0000000
189.76514,2.7169295e-15,0.0000000
189.86516,2.7122678e-15,0.0000000
189.96518,2.7079124e-15,0.0000000
190.06520,2.7035145e-15,0.0000000
190.16522,2.6986489e-15,0.0000000
190.26525,2.6938765e-15,0.0000000
190.36527,2.6892398e-15,0.0000000
190.46529,2.6848145e-15,0.0000000
190.56531,2.6804951e-15,0.0000000
190.66533,2.6756652e-15,0.0000000
190.76535,2.6708779e-15,0.0000000
190.86537,2.6662938e-15,0.0000000
190.96539,2.6616387e-15,0.0000000
191.06541,2.6572980e-15,0.0000000
191.16544,2.6527467e-15,0.0000000
191.26546,2.6480905e-15,0.0000000
191.36548,2.6435366e-15,0.0000000
191.46550,2.6392520e-15,0.0000000
191.56552,2.6344018e-15,0.0000000
191.66554,2.6300042e-15,0.0000000
191.76556,2.6254712e-15,0.0000000
191.86558,2.6207997e-15,0.0000000
191.96561,2.6161765e-15,0.0000000
192.06563,2.6117809e-15,0.0000000
192.16565,2.6073959e-15,0.0000000
192.26567,2.6030328e-15,0.0000000
192.36569,2.5985247e-15,0.0000000
192.46571,2.5938235e-15,0.0000000
192.56573,2.5893689e-15,0.0000000
192.66576,2.5849918e-15,0.0000000
192.76578,2.5805981e-15,0.0000000
192.86580,2.5761562e-15,0.0000000
192.96582,2.5714650e-15,0.0000000
193.06584,2.5669517e-15,0.0000000
193.16586,2.5626203e-15,0.0000000
193.26588,2.5580819e-15,0.0000000
193.36591,2.5534799e-15,0.0000000
193.46593,2.5494287e-15,0.0000000
193.56595,2.5447982e-15,0.0000000
193.66597,2.5403913e-15,0.0000000
