wave,flux,fluxerr
1350.5642,3.7076969e-15,0.0000000
1351.5643,3.6993074e-15,0.0000000
1352.5644,3.6912244e-15,0.0000000
1353.5644,3.6832876e-15,0.0000000
1354.5645,3.6751915e-15,0.0000000
1355.5646,3.6675455e-15,0.0000000
1356.5647,3.6591335e-15,0.0000000
1357.5648,3.6514134e-15,0.0000000
1358.5648,3.6433633e-15,0.0000000
1359.5649,3.6353890e-15,0.0000000
1360.5650,3.6272656e-15,0.0000000
1361.5651,3.6195873e-15,0.0000000
1362.5652,3.6119051e-15,0.0000000
1363.5652,3.6037587e-15,0.0000000
1364.5653,3.5960739e-15,0.0000000
1365.5654,3.5883756e-15,0.0000000
1366.5655,3.5806708e-15,0.0000000
1367.5656,3.5729632e-15,0.0000000
1368.5657,3.5647964e-15,0.0000000
1369.5657,3.5570797e-15,0.0000000
1370.5658,3.5493552e-15,0.0000000
1371.5659,3.5416302e-15,0.0000000
1372.5660,3.5339005e-15,0.0000000
1373.5661,3.5261607e-15,0.0000000
1374.5662,3.5187265e-15,0.0000000
1375.5663,3.5109838e-15,0.0000000
1376.5663,3.5036903e-15,0.0000000
1377.5664,3.4962412e-15,0.0000000
1378.5665,3.4884780e-15,0.0000000
1379.5666,3.4807105e-15,0.0000000
1380.5667,3.4732548e-15,0.0000000
1381.5668,3.4659356e-15,0.0000000
1382.5669,3.4584628e-15,0.0000000
1383.5670,3.4507647e-15,0.0000000
1384.5671,3.4431673e-15,0.0000000
1385.5671,3.4358856e-15,0.0000000
1386.5672,3.4287393e-15,0.0000000
1387.5673,3.4211289e-15,0.0000000
1388.5674,3.4138250e-15,0.0000000
1389.5675,3.4062053e-15,0.0000000
1390.5676,3.3993598e-15,0.0000000
1391.5677,3.3917315e-15,0.0000000
1392.5678,3.3844105e-15,0.0000000
1393.5679,3.3772322e-15,0.0000000
1394.5680,3.3699096e-15,0.0000000
1395.5681,3.3622642e-15,0.0000000
1396.5682,3.3553842e-15,0.0000000
1397.5683,3.3480416e-15,0.0000000
1398.5684,3.3408877e-15,0.0000000
1399.5685,3.3337954e-15,0.0000000
1400.5686,3.3266035e-15,0.0000000
1401.5687,3.3195979e-15,0.0000000
1402.5688,3.3120819e-15,0.0000000
1403.5689,3.3051280e-15,0.0000000
1404.5690,3.2982163e-15,0.0000000
1405.5691,3.2908386e-15,0.0000000
1406.5692,3.2839186e-15,0.0000000
1407.5693,3.2770026e-15,0.0000000
1408.5694,3.2700743e-15,0.0000000
1409.5695,3.2630162e-15,0.0000000
1410.5696,3.2558539e-15,0.0000000
1411.5697,3.2488075e-15,0.0000000
1412.5698,3.2418702e-15,0.0000000
1413.5699,3.2349228e-15,0.0000000
1414.5700,3.2279707e-15,0.0000000
1415.5701,3.2210156e-15,0.0000000
1416.5702,3.2141675e-15,0.0000000
1417.5703,3.2075251e-15,0.0000000
1418.5704,3.2005745e-15,0.0000000
1419.5705,3.1939311e-15,0.0000000
1420.5706,3.1872747e-15,0.0000000
1421.5707,3.1800480e-15,0.0000000
1422.5708,3.1732030e-15,0.0000000
1423.5709,3.1665833e-15,0.0000000
1424.5711,3.1596728e-15,0.0000000
1425.5712,3.1529235e-15,0.0000000
1426.5713,3.1464836e-15,0.0000000
1427.5714,3.1400100e-15,0.0000000
1428.5715,3.1332325e-15,0.0000000
1429.5716,3.1263305e-15,0.0000000
1430.5717,3.1196782e-15,0.0000000
1431.5718,3.1129936e-15,0.0000000
1432.5719,3.1063108e-15,0.0000000
1433.5720,3.0998408e-15,0.0000000
1434.5722,3.0933649e-15,0.0000000
1435.5723,3.0866754e-15,0.0000000
1436.5724,3.0799736e-15,0.0000000
1437.5725,3.0737240e-15,0.0000000
1438.5726,3.0670157e-15,0.0000000
1439.5727,3.0603322e-15,0.0000000
1440.5728,3.0542133e-15,0.0000000
1441.5729,3.0473629e-15,0.0000000
1442.5731,3.0412783e-15,0.0000000
1443.5732,3.0346563e-15,0.0000000
1444.5733,3.0283913e-15,0.0000000
1445.5734,3.0217837e-15,0.0000000
1446.5735,3.0156921e-15,0.0000000
1447.5736,3.0091771e-15,0.0000000
1448.5738,3.0027163e-15,0.0000000
1449.5739,2.9966161e-15,0.0000000
1450.5740,2.9899676e-15,0.0000000
1451.5741,2.9838298e-15,0.0000000
1452.5742,2.9774166e-15,0.0000000
1453.5743,2.9713182e-15,0.0000000
1454.5745,2.9648799e-15,0.0000000
1455.5746,2.9588550e-15,0.0000000
1456.5747,2.9523989e-15,0.0000000
1457.5748,2.9462552e-15,0.0000000
1458.5749,2.9400322e-15,0.0000000
1459.5751,2.9338065e-15,0.0000000
1460.5752,2.9279092e-15,0.0000000
1461.5753,2.9215979e-15,0.0000000
1462.5754,2.9152312e-15,0.0000000
1463.5756,2.9093480e-15,0.0000000
1464.5757,2.9031212e-15,0.0000000
1465.5758,2.8968696e-15,0.0000000
1466.5759,2.8910544e-15,0.0000000
1467.5760,2.8848452e-15,0.0000000
1468.5762,2.8789611e-15,0.0000000
1469.5763,2.8730325e-15,0.0000000
1470.5764,2.8667762e-15,0.0000000
1471.5765,2.8610684e-15,0.0000000
1472.5767,2.8547933e-15,0.0000000
1473.5768,2.8489723e-15,0.0000000
1474.5769,2.8426883e-15,0.0000000
1475.5770,2.8369701e-15,0.0000000
1476.5772,2.8312495e-15,0.0000000
1477.5773,2.8250467e-15,0.0000000
1478.5774,2.8192076e-15,0.0000000
1479.5776,2.8133708e-15,0.0000000
1480.5777,2.8075187e-15,0.0000000
1481.5778,2.8016251e-15,0.0000000
1482.5779,2.7957302e-15,0.0000000
1483.5781,2.7898871e-15,0.0000000
1484.5782,2.7841462e-15,0.0000000
1485.5783,2.7784034e-15,0.0000000
1486.5785,2.7727405e-15,0.0000000
1487.5786,2.7665736e-15,0.0000000
1488.5787,2.7608636e-15,0.0000000
1489.5788,2.7551514e-15,0.0000000
1490.5790,2.7496831e-15,0.0000000
1491.5791,2.7438433e-15,0.0000000
1492.5792,2.7379982e-15,0.0000000
1493.5794,2.7321499e-15,0.0000000
1494.5795,2.7267116e-15,0.0000000
1495.5796,2.7209854e-15,0.0000000
1496.5798,2.7154850e-15,0.0000000
1497.5799,2.7098371e-15,0.0000000
1498.5800,2.7041835e-15,0.0000000
1499.5802,2.6985306e-15,0.0000000
1500.5803,2.6928779e-15,0.0000000
1501.5804,2.6872171e-15,0.0000000
1502.5806,2.6817689e-15,0.0000000
1503.5807,2.6762142e-15,0.0000000
1504.5809,2.6706093e-15,0.0000000
1505.5810,2.6652874e-15,0.0000000
1506.5811,2.6598716e-15,0.0000000
1507.5813,2.6543208e-15,0.0000000
1508.5814,2.6486498e-15,0.0000000
1509.5815,2.6429725e-15,0.0000000
1510.5817,2.6378651e-15,0.0000000
1511.5818,2.6323994e-15,0.0000000
1512.5819,2.6270364e-15,0.0000000
1513.5821,2.6213491e-15,0.0000000
1514.5822,2.6161310e-15,0.0000000
1515.5824,2.6107550e-15,0.0000000
1516.5825,2.6050684e-15,0.0000000
1517.5826,2.6001586e-15,0.0000000
1518.5828,2.5944654e-15,0.0000000
1519.5829,2.5895509e-15,0.0000000
1520.5831,2.5838537e-15,0.0000000
1521.5832,2.5787741e-15,0.0000000
1522.5833,2.5733678e-15,0.0000000
1523.5835,2.5680982e-15,0.0000000
1524.5836,2.5625421e-15,0.0000000
1525.5838,2.5577083e-15,0.0000000
1526.5839,2.5521208e-15,0.0000000
1527.5841,2.5473087e-15,0.0000000
1528.5842,2.5417172e-15,0.0000000
1529.5843,2.5364896e-15,0.0000000
1530.5845,2.5313059e-15,0.0000000
1531.5846,2.5263692e-15,0.0000000
1532.5848,2.5212053e-15,0.0000000
1533.5849,2.5157692e-15,0.0000000
1534.5851,2.5107816e-15,0.0000000
1535.5852,2.5059476e-15,0.0000000
1536.5854,2.5003473e-15,0.0000000
1537.5855,2.4955217e-15,0.0000000
1538.5856,2.4902248e-15,0.0000000
1539.5858,2.4851492e-15,0.0000000
1540.5859,2.4802459e-15,0.0000000
1541.5861,2.4749460e-15,0.0000000
1542.5862,2.4701076e-15,0.0000000
1543.5864,2.4652718e-15,0.0000000
1544.5865,2.4597835e-15,0.0000000
1545.5867,2.4548074e-15,0.0000000
1546.5868,2.4499645e-15,0.0000000
1547.5870,2.4451206e-15,0.0000000
1548.5871,2.4402721e-15,0.0000000
1549.5873,2.4349585e-15,0.0000000
1550.5874,2.4301110e-15,0.0000000
1551.5876,2.4252566e-15,0.0000000
1552.5877,2.4204050e-15,0.0000000
1553.5879,2.4155503e-15,0.0000000
1554.5880,2.4106956e-15,0.0000000
1555.5882,2.4058372e-15,0.0000000
1556.5883,2.4009798e-15,0.0000000
1557.5885,2.3956478e-15,0.0000000
1558.5886,2.3908385e-15,0.0000000
1559.5888,2.3860899e-15,0.0000000
1560.5889,2.3813447e-15,0.0000000
1561.5891,2.3765931e-15,0.0000000
1562.5892,2.3718435e-15,0.0000000
1563.5894,2.3670897e-15,0.0000000
1564.5895,2.3623382e-15,0.0000000
1565.5897,2.3575806e-15,0.0000000
1566.5898,2.3528224e-15,0.0000000
1567.5900,2.3480659e-15,0.0000000
1568.5901,2.3433034e-15,0.0000000
1569.5903,2.3385441e-15,0.0000000
1570.5904,2.3337786e-15,0.0000000
1571.5906,2.3290163e-15,0.0000000
1572.5908,2.3242486e-15,0.0000000
1573.5909,2.3194967e-15,0.0000000
1574.5911,2.3150300e-15,0.0000000
1575.5912,2.3102621e-15,0.0000000
1576.5914,2.3054875e-15,0.0000000
1577.5915,2.3007141e-15,0.0000000
1578.5917,2.2962559e-15,0.0000000
1579.5918,2.2914821e-15,0.0000000
1580.5920,2.2871717e-15,0.0000000
1581.5922,2.2823901e-15,0.0000000
1582.5923,2.2779286e-15,0.0000000
1583.5925,2.2731451e-15,0.0000000
1584.5926,2.2685008e-15,0.0000000
1585.5928,2.2643630e-15,0.0000000
1586.5930,2.2595795e-15,0.0000000
1587.5931,2.2547903e-15,0.0000000
1588.5933,2.2507900e-15,0.0000000
1589.5934,2.2459971e-15,0.0000000
1590.5936,2.2415270e-15,0.0000000
1591.5937,2.2371996e-15,0.0000000
1592.5939,2.2327245e-15,0.0000000
1593.5941,2.2279267e-15,0.0000000
1594.5942,2.2237349e-15,0.0000000
1595.5944,2.2191189e-15,0.0000000
1596.5945,2.2146964e-15,0.0000000
1597.5947,2.2105173e-15,0.0000000
1598.5949,2.2058302e-15,0.0000000
1599.5950,2.2014618e-15,0.0000000
1600.5952,2.1972427e-15,0.0000000
1601.5954,2.1928007e-15,0.0000000
1602.5955,2.1885677e-15,0.0000000
1603.5957,2.1839529e-15,0.0000000
1604.5958,2.1795723e-15,0.0000000
1605.5960,2.1753479e-15,0.0000000
1606.5962,2.1709698e-15,0.0000000
1607.5963,2.1667507e-15,0.0000000
1608.5965,2.1623573e-15,0.0000000
1609.5967,2.1584442e-15,0.0000000
1610.5968,2.1537402e-15,0.0000000
1611.5970,2.1494491e-15,0.0000000
1612.5971,2.1451228e-15,0.0000000
1613.5973,2.1411997e-15,0.0000000
1614.5975,2.1368129e-15,0.0000000
1615.5976,2.1325754e-15,0.0000000
1616.5978,2.1281847e-15,0.0000000
1617.5980,2.1240828e-15,0.0000000
1618.5981,2.1197763e-15,0.0000000
1619.5983,2.1156253e-15,0.0000000
1620.5985,2.1116947e-15,0.0000000
1621.5986,2.1069824e-15,0.0000000
1622.5988,2.1030540e-15,0.0000000
1623.5990,2.0991210e-15,0.0000000
1624.5991,2.0946348e-15,0.0000000
1625.5993,2.0904734e-15,0.0000000
1626.5995,2.0865371e-15,0.0000000
1627.5996,2.0825325e-15,0.0000000
1628.5998,2.0782000e-15,0.0000000
1629.6000,2.0742385e-15,0.0000000
1630.6001,2.0703143e-15,0.0000000
1631.6003,2.0660725e-15,0.0000000
1632.6005,2.0616962e-15,0.0000000
1633.6007,2.0577166e-15,0.0000000
1634.6008,2.0538189e-15,0.0000000
1635.6010,2.0499856e-15,0.0000000
1636.6012,2.0457064e-15,0.0000000
1637.6013,2.0415394e-15,0.0000000
1638.6015,2.0377035e-15,0.0000000
1639.6017,2.0338440e-15,0.0000000
1640.6018,2.0295646e-15,0.0000000
1641.6020,2.0256892e-15,0.0000000
1642.6022,2.0218442e-15,0.0000000
1643.6024,2.0176504e-15,0.0000000
1644.6025,2.0137965e-15,0.0000000
1645.6027,2.0095823e-15,0.0000000
1646.6029,2.0057430e-15,0.0000000
1647.6030,2.0018988e-15,0.0000000
1648.6032,1.9980574e-15,0.0000000
1649.6034,1.9942103e-15,0.0000000
1650.6036,1.9901818e-15,0.0000000
1651.6037,1.9863194e-15,0.0000000
1652.6039,1.9824588e-15,0.0000000
1653.6041,1.9785940e-15,0.0000000
1654.6043,1.9745056e-15,0.0000000
1655.6044,1.9706535e-15,0.0000000
1656.6046,1.9668047e-15,0.0000000
1657.6048,1.9629506e-15,0.0000000
1658.6049,1.9590977e-15,0.0000000
1659.6051,1.9552433e-15,0.0000000
1660.6053,1.9513895e-15,0.0000000
1661.6055,1.9477396e-15,0.0000000
1662.6056,1.9438589e-15,0.0000000
1663.6058,1.9399761e-15,0.0000000
1664.6060,1.9363581e-15,0.0000000
1665.6062,1.9324825e-15,0.0000000
1666.6064,1.9290283e-15,0.0000000
1667.6065,1.9251896e-15,0.0000000
1668.6067,1.9213191e-15,0.0000000
1669.6069,1.9177572e-15,0.0000000
1670.6071,1.9138896e-15,0.0000000
1671.6072,1.9100280e-15,0.0000000
1672.6074,1.9061643e-15,0.0000000
1673.6076,1.9029966e-15,0.0000000
1674.6078,1.8991580e-15,0.0000000
1675.6079,1.8953204e-15,0.0000000
1676.6081,1.8916125e-15,0.0000000
1677.6083,1.8880467e-15,0.0000000
1678.6085,1.8842818e-15,0.0000000
1679.6087,1.8806117e-15,0.0000000
1680.6088,1.8768176e-15,0.0000000
1681.6090,1.8733527e-15,0.0000000
1682.6092,1.8695494e-15,0.0000000
1683.6094,1.8661989e-15,0.0000000
1684.6095,1.8623856e-15,0.0000000
1685.6097,1.8589383e-15,0.0000000
1686.6099,1.8552690e-15,0.0000000
1687.6101,1.8515006e-15,0.0000000
1688.6103,1.8480290e-15,0.0000000
1689.6104,1.8447502e-15,0.0000000
1690.6106,1.8409803e-15,0.0000000
1691.6108,1.8372661e-15,0.0000000
1692.6110,1.8337465e-15,0.0000000
1693.6112,1.8303881e-15,0.0000000
1694.6114,1.8266736e-15,0.0000000
1695.6115,1.8231115e-15,0.0000000
1696.6117,1.8197091e-15,0.0000000
1697.6119,1.8162849e-15,0.0000000
1698.6121,1.8126785e-15,0.0000000
1699.6123,1.8091089e-15,0.0000000
1700.6124,1.8056454e-15,0.0000000
1701.6126,1.8021587e-15,0.0000000
1702.6128,1.7988031e-15,0.0000000
1703.6130,1.7953149e-15,0.0000000
1704.6132,1.7915798e-15,0.0000000
1705.6134,1.7883172e-15,0.0000000
1706.6135,1.7848061e-15,0.0000000
1707.6137,1.7813842e-15,0.0000000
1708.6139,1.7781432e-15,0.0000000
1709.6141,1.7746804e-15,0.0000000
1710.6143,1.7712983e-15,0.0000000
1711.6145,1.7678075e-15,0.0000000
1712.6146,1.7644455e-15,0.0000000
1713.6148,1.7609547e-15,0.0000000
1714.6150,1.7576115e-15,0.0000000
1715.6152,1.7542423e-15,0.0000000
1716.6154,1.7508836e-15,0.0000000
1717.6156,1.7475645e-15,0.0000000
1718.6158,1.7441599e-15,0.0000000
1719.6159,1.7411330e-15,0.0000000
1720.6161,1.7375624e-15,0.0000000
1721.6163,1.7342917e-15,0.0000000
1722.6165,1.7309861e-15,0.0000000
1723.6167,1.7274460e-15,0.0000000
1724.6169,1.7244096e-15,0.0000000
1725.6171,1.7209894e-15,0.0000000
1726.6172,1.7176727e-15,0.0000000
1727.6174,1.7145377e-15,0.0000000
1728.6176,1.7113480e-15,0.0000000
1729.6178,1.7079498e-15,0.0000000
1730.6180,1.7046536e-15,0.0000000
1731.6182,1.7012309e-15,0.0000000
1732.6184,1.6982766e-15,0.0000000
1733.6186,1.6949246e-15,0.0000000
1734.6187,1.6917940e-15,0.0000000
1735.6189,1.6882223e-15,0.0000000
1736.6191,1.6851971e-15,0.0000000
1737.6193,1.6821484e-15,0.0000000
1738.6195,1.6791130e-15,0.0000000
1739.6197,1.6757019e-15,0.0000000
1740.6199,1.6722501e-15,0.0000000
1741.6201,1.6692106e-15,0.0000000
1742.6203,1.6661708e-15,0.0000000
1743.6204,1.6631302e-15,0.0000000
1744.6206,1.6597969e-15,0.0000000
1745.6208,1.6568361e-15,0.0000000
1746.6210,1.6534485e-15,0.0000000
1747.6212,1.6504577e-15,0.0000000
1748.6214,1.6471515e-15,0.0000000
1749.6216,1.6441628e-15,0.0000000
1750.6218,1.6411731e-15,0.0000000
1751.6220,1.6377974e-15,0.0000000
1752.6222,1.6348317e-15,0.0000000
1753.6224,1.6314454e-15,0.0000000
1754.6225,1.6284523e-15,0.0000000
1755.6227,1.6254861e-15,0.0000000
1756.6229,1.6223730e-15,0.0000000
1757.6231,1.6193770e-15,0.0000000
1758.6233,1.6163839e-15,0.0000000
1759.6235,1.6133855e-15,0.0000000
1760.6237,1.6103899e-15,0.0000000
1761.6239,1.6072379e-15,0.0000000
1762.6241,1.6043495e-15,0.0000000
1763.6243,1.6009941e-15,0.0000000
1764.6245,1.5981054e-15,0.0000000
1765.6247,1.5952190e-15,0.0000000
1766.6249,1.5919282e-15,0.0000000
1767.6251,1.5889714e-15,0.0000000
1768.6252,1.5860786e-15,0.0000000
1769.6254,1.5831889e-15,0.0000000
1770.6256,1.5799251e-15,0.0000000
1771.6258,1.5769342e-15,0.0000000
1772.6260,1.5740449e-15,0.0000000
1773.6262,1.5711514e-15,0.0000000
1774.6264,1.5682595e-15,0.0000000
1775.6266,1.5649057e-15,0.0000000
1776.6268,1.5620702e-15,0.0000000
1777.6270,1.5594238e-15,0.0000000
1778.6272,1.5565292e-15,0.0000000
1779.6274,1.5536325e-15,0.0000000
1780.6276,1.5506631e-15,0.0000000
1781.6278,1.5476552e-15,0.0000000
1782.6280,1.5446466e-15,0.0000000
1783.6282,1.5419143e-15,0.0000000
1784.6284,1.5389930e-15,0.0000000
1785.6286,1.5360949e-15,0.0000000
1786.6288,1.5331944e-15,0.0000000
1787.6290,1.5303861e-15,0.0000000
1788.6291,1.5273885e-15,0.0000000
1789.6293,1.5246781e-15,0.0000000
1790.6295,1.5216660e-15,0.0000000
1791.6297,1.5186525e-15,0.0000000
1792.6299,1.5161049e-15,0.0000000
1793.6301,1.5134132e-15,0.0000000
1794.6303,1.5103992e-15,0.0000000
1795.6305,1.5073827e-15,0.0000000
1796.6307,1.5043683e-15,0.0000000
1797.6309,1.5021379e-15,0.0000000
1798.6311,1.4991702e-15,0.0000000
1799.6313,1.4962047e-15,0.0000000
1800.6315,1.4932894e-15,0.0000000
1801.6317,1.4907606e-15,0.0000000
1802.6319,1.4879350e-15,0.0000000
1803.6321,1.4851211e-15,0.0000000
1804.6323,1.4822385e-15,0.0000000
1805.6325,1.4797696e-15,0.0000000
1806.6327,1.4769420e-15,0.0000000
1807.6329,1.4740852e-15,0.0000000
1808.6331,1.4713768e-15,0.0000000
1809.6333,1.4684063e-15,0.0000000
1810.6335,1.4659307e-15,0.0000000
1811.6337,1.4632495e-15,0.0000000
1812.6339,1.4602751e-15,0.0000000
1813.6341,1.4577644e-15,0.0000000
1814.6343,1.4551145e-15,0.0000000
1815.6345,1.4521399e-15,0.0000000
1816.6347,1.4495814e-15,0.0000000
1817.6349,1.4469771e-15,0.0000000
1818.6351,1.4440008e-15,0.0000000
1819.6353,1.4416450e-15,0.0000000
1820.6355,1.4388342e-15,0.0000000
1821.6357,1.4358560e-15,0.0000000
1822.6359,1.4335199e-15,0.0000000
1823.6361,1.4306849e-15,0.0000000
1824.6363,1.4281625e-15,0.0000000
1825.6365,1.4255128e-15,0.0000000
1826.6367,1.4228168e-15,0.0000000
1827.6369,1.4203382e-15,0.0000000
1828.6371,1.4173566e-15,0.0000000
1829.6373,1.4146915e-15,0.0000000
1830.6375,1.4122118e-15,0.0000000
1831.6377,1.4095146e-15,0.0000000
1832.6379,1.4070006e-15,0.0000000
1833.6381,1.4043328e-15,0.0000000
1834.6383,1.4018183e-15,0.0000000
1835.6386,1.3991500e-15,0.0000000
1836.6388,1.3965898e-15,0.0000000
1837.6390,1.3939646e-15,0.0000000
1838.6392,1.3912187e-15,0.0000000
1839.6394,1.3887779e-15,0.0000000
1840.6396,1.3862956e-15,0.0000000
1841.6398,1.3836186e-15,0.0000000
1842.6400,1.3813233e-15,0.0000000
1843.6402,1.3785269e-15,0.0000000
1844.6404,1.3757600e-15,0.0000000
1845.6406,1.3734323e-15,0.0000000
1846.6408,1.3709399e-15,0.0000000
1847.6410,1.3683383e-15,0.0000000
1848.6412,1.3657151e-15,0.0000000
1849.6414,1.3632390e-15,0.0000000
1850.6416,1.3606133e-15,0.0000000
1851.6418,1.3581394e-15,0.0000000
1852.6420,1.3557299e-15,0.0000000
1853.6422,1.3530368e-15,0.0000000
1854.6424,1.3505007e-15,0.0000000
1855.6426,1.3482486e-15,0.0000000
1856.6428,1.3457366e-15,0.0000000
1857.6431,1.3431425e-15,0.0000000
1858.6433,1.3406646e-15,0.0000000
1859.6435,1.3380346e-15,0.0000000
1860.6437,1.3358728e-15,0.0000000
1861.6439,1.3332749e-15,0.0000000
1862.6441,1.3307606e-15,0.0000000
1863.6443,1.3284312e-15,0.0000000
1864.6445,1.3256474e-15,0.0000000
1865.6447,1.3234813e-15,0.0000000
1866.6449,1.3209773e-15,0.0000000
1867.6451,1.3183650e-15,0.0000000
1868.6453,1.3161992e-15,0.0000000
1869.6455,1.3137685e-15,0.0000000
1870.6457,1.3110780e-15,0.0000000
1871.6460,1.3089099e-15,0.0000000
1872.6462,1.3062729e-15,0.0000000
1873.6464,1.3037869e-15,0.0000000
1874.6466,1.3016175e-15,0.0000000
1875.6468,1.2993769e-15,0.0000000
1876.6470,1.2968071e-15,0.0000000
1877.6472,1.2943198e-15,0.0000000
1878.6474,1.2921219e-15,0.0000000
1879.6476,1.2895063e-15,0.0000000
1880.6478,1.2872301e-15,0.0000000
1881.6480,1.2848440e-15,0.0000000
1882.6482,1.2823911e-15,0.0000000
1883.6485,1.2800268e-15,0.0000000
1884.6487,1.2778525e-15,0.0000000
1885.6489,1.2753680e-15,0.0000000
1886.6491,1.2727720e-15,0.0000000
1887.6493,1.2706437e-15,0.0000000
1888.6495,1.2685150e-15,0.0000000
1889.6497,1.2657055e-15,0.0000000
1890.6499,1.2634722e-15,0.0000000
1891.6501,1.2613410e-15,0.0000000
1892.6503,1.2592109e-15,0.0000000
1893.6506,1.2562968e-15,0.0000000
1894.6508,1.2541647e-15,0.0000000
1895.6510,1.2520324e-15,0.0000000
1896.6512,1.2498981e-15,0.0000000
1897.6514,1.2472993e-15,0.0000000
1898.6516,1.2448497e-15,0.0000000
1899.6518,1.2427138e-15,0.0000000
1900.6520,1.2405793e-15,0.0000000
1901.6522,1.2384431e-15,0.0000000
1902.6525,1.2358402e-15,0.0000000
1903.6527,1.2337042e-15,0.0000000
1904.6529,1.2312507e-15,0.0000000
1905.6531,1.2291140e-15,0.0000000
1906.6533,1.2269760e-15,0.0000000
1907.6535,1.2243695e-15,0.0000000
1908.6537,1.2222313e-15,0.0000000
1909.6539,1.2200913e-15,0.0000000
1910.6541,1.2179506e-15,0.0000000
1911.6544,1.2154960e-15,0.0000000
1912.6546,1.2133546e-15,0.0000000
1913.6548,1.2112120e-15,0.0000000
1914.6550,1.2086052e-15,0.0000000
1915.6552,1.2064618e-15,0.0000000
1916.6554,1.2043176e-15,0.0000000
1917.6556,1.2021758e-15,0.0000000
1918.6558,1.2000307e-15,0.0000000
1919.6561,1.1978853e-15,0.0000000
1920.6563,1.1957419e-15,0.0000000
1921.6565,1.1935953e-15,0.0000000
1922.6567,1.1914494e-15,0.0000000
1923.6569,1.1891779e-15,0.0000000
1924.6571,1.1863762e-15,0.0000000
1925.6573,1.1842297e-15,0.0000000
1926.6576,1.1820809e-15,0.0000000
1927.6578,1.1799328e-15,0.0000000
1928.6580,1.1777846e-15,0.0000000
1929.6582,1.1756362e-15,0.0000000
1930.6584,1.1734866e-15,0.0000000
1931.6586,1.1713711e-15,0.0000000
1932.6588,1.1692674e-15,0.0000000
1933.6591,1.1671645e-15,0.0000000
1934.6593,1.1650607e-15,0.0000000
1935.6595,1.1629555e-15,0.0000000
1936.6597,1.1608522e-15,0.0000000
