wave,flux,fluxerr
135.05642,2.4505471e-14,0.0000000
135.15643,2.4447972e-14,0.0000000
135.25644,2.4390841e-14,0.0000000
135.35644,2.4335584e-14,0.0000000
135.45645,2.4279938e-14,0.0000000
135.55646,2.4224295e-14,0.0000000
135.65647,2.4167116e-14,0.0000000
135.75648,2.4112905e-14,0.0000000
135.85648,2.4057090e-14,0.0000000
135.95649,2.4001082e-14,0.0000000
136.05650,2.3946392e-14,0.0000000
136.15651,2.3890585e-14,0.0000000
136.25652,2.3837590e-14,0.0000000
136.35652,2.3780914e-14,0.0000000
136.45653,2.3727702e-14,0.0000000
136.55654,2.3673952e-14,0.0000000
136.65655,2.3618765e-14,0.0000000
136.75656,2.3565170e-14,0.0000000
136.85657,2.3511491e-14,0.0000000
136.95657,2.3455587e-14,0.0000000
137.05658,2.3402700e-14,0.0000000
137.15659,2.3349586e-14,0.0000000
137.25660,2.3296669e-14,0.0000000
137.35661,2.3243984e-14,0.0000000
137.45662,2.3189019e-14,0.0000000
137.55663,2.3135147e-14,0.0000000
137.65663,2.3084029e-14,0.0000000
137.75664,2.3031332e-14,0.0000000
137.85665,2.2978328e-14,0.0000000
137.95666,2.2925441e-14,0.0000000
138.05667,2.2874435e-14,0.0000000
138.15668,2.2824252e-14,0.0000000
138.25669,2.2771028e-14,0.0000000
138.35670,2.2719466e-14,0.0000000
138.45671,2.2668003e-14,0.0000000
138.55671,2.2616253e-14,0.0000000
138.65672,2.2565492e-14,0.0000000
138.75673,2.2514231e-14,0.0000000
138.85674,2.2463042e-14,0.0000000
138.95675,2.2411260e-14,0.0000000
139.05676,2.2360487e-14,0.0000000
139.15677,2.2309173e-14,0.0000000
139.25678,2.2258130e-14,0.0000000
139.35679,2.2210070e-14,0.0000000
139.45680,2.2158950e-14,0.0000000
139.55681,2.2108019e-14,0.0000000
139.65682,2.2057789e-14,0.0000000
139.75683,2.2008859e-14,0.0000000
139.85684,2.1958962e-14,0.0000000
139.95685,2.1909805e-14,0.0000000
140.05686,2.1860011e-14,0.0000000
140.15687,2.1809869e-14,0.0000000
140.25688,2.1761418e-14,0.0000000
140.35689,2.1712212e-14,0.0000000
140.45690,2.1664882e-14,0.0000000
140.55691,2.1614734e-14,0.0000000
140.65692,2.1565969e-14,0.0000000
140.75693,2.1518068e-14,0.0000000
140.85694,2.1468377e-14,0.0000000
140.95695,2.1421091e-14,0.0000000
141.05696,2.1373567e-14,0.0000000
141.15697,2.1324013e-14,0.0000000
141.25698,2.1276687e-14,0.0000000
141.35699,2.1228966e-14,0.0000000
141.45700,2.1182596e-14,0.0000000
141.55701,2.1134483e-14,0.0000000
141.65702,2.1086429e-14,0.0000000
141.75703,2.1039604e-14,0.0000000
141.85704,2.0994075e-14,0.0000000
141.95705,2.0946881e-14,0.0000000
142.05706,2.0900028e-14,0.0000000
142.15707,2.0852974e-14,0.0000000
142.25708,2.0806006e-14,0.0000000
142.35709,2.0761131e-14,0.0000000
142.45711,2.0713615e-14,0.0000000
142.55712,2.0666022e-14,0.0000000
142.65713,2.0620930e-14,0.0000000
142.75714,2.0575478e-14,0.0000000
142.85715,2.0530302e-14,0.0000000
142.95716,2.0484648e-14,0.0000000
143.05717,2.0438569e-14,0.0000000
143.15718,2.0393527e-14,0.0000000
143.25719,2.0347581e-14,0.0000000
143.35720,2.0302043e-14,0.0000000
143.45722,2.0257209e-14,0.0000000
143.55723,2.0212879e-14,0.0000000
143.65724,2.0168467e-14,0.0000000
143.75725,2.0124448e-14,0.0000000
143.85726,2.0078427e-14,0.0000000
143.95727,2.0034499e-14,0.0000000
144.05728,1.9990510e-14,0.0000000
144.15729,1.9946070e-14,0.0000000
144.25731,1.9902160e-14,0.0000000
144.35732,1.9858921e-14,0.0000000
144.45733,1.9814469e-14,0.0000000
144.55734,1.9770387e-14,0.0000000
144.65735,1.9728274e-14,0.0000000
144.75736,1.9684058e-14,0.0000000
144.85738,1.9641163e-14,0.0000000
144.95739,1.9597749e-14,0.0000000
145.05740,1.9553973e-14,0.0000000
145.15741,1.9512435e-14,0.0000000
145.25742,1.9467570e-14,0.0000000
145.35743,1.9426117e-14,0.0000000
145.45745,1.9383057e-14,0.0000000
145.55746,1.9339607e-14,0.0000000
145.65747,1.9298455e-14,0.0000000
145.75748,1.9254933e-14,0.0000000
145.85749,1.9213558e-14,0.0000000
145.95751,1.9171025e-14,0.0000000
146.05752,1.9129144e-14,0.0000000
146.15753,1.9088021e-14,0.0000000
146.25754,1.9046124e-14,0.0000000
146.35756,1.9004912e-14,0.0000000
146.45757,1.8963461e-14,0.0000000
146.55758,1.8919686e-14,0.0000000
146.65759,1.8880187e-14,0.0000000
146.75760,1.8839276e-14,0.0000000
146.85762,1.8796742e-14,0.0000000
146.95763,1.8757738e-14,0.0000000
147.05764,1.8716948e-14,0.0000000
147.15765,1.8677521e-14,0.0000000
147.25767,1.8634208e-14,0.0000000
147.35768,1.8594071e-14,0.0000000
147.45769,1.8553653e-14,0.0000000
147.55770,1.8514221e-14,0.0000000
147.65772,1.8474819e-14,0.0000000
147.75773,1.8434352e-14,0.0000000
147.85774,1.8394898e-14,0.0000000
147.95776,1.8354877e-14,0.0000000
148.05777,1.8315965e-14,0.0000000
148.15778,1.8274852e-14,0.0000000
148.25779,1.8235852e-14,0.0000000
148.35781,1.8197323e-14,0.0000000
148.45782,1.8157881e-14,0.0000000
148.55783,1.8117983e-14,0.0000000
148.65785,1.8079882e-14,0.0000000
148.75786,1.8038459e-14,0.0000000
148.85787,1.7999749e-14,0.0000000
148.95788,1.7961929e-14,0.0000000
149.05790,1.7921622e-14,0.0000000
149.15791,1.7884135e-14,0.0000000
149.25792,1.7846009e-14,0.0000000
149.35794,1.7807872e-14,0.0000000
149.45795,1.7769018e-14,0.0000000
149.55796,1.7731173e-14,0.0000000
149.65798,1.7693915e-14,0.0000000
149.75799,1.7656059e-14,0.0000000
149.85800,1.7617556e-14,0.0000000
149.95802,1.7579071e-14,0.0000000
150.05803,1.7541219e-14,0.0000000
150.15804,1.7502846e-14,0.0000000
150.25806,1.7466332e-14,0.0000000
150.35807,1.7429076e-14,0.0000000
150.45809,1.7391618e-14,0.0000000
150.55810,1.7354269e-14,0.0000000
150.65811,1.7318419e-14,0.0000000
150.75813,1.7281271e-14,0.0000000
150.85814,1.7243382e-14,0.0000000
150.95815,1.7208508e-14,0.0000000
151.05817,1.7172232e-14,0.0000000
151.15818,1.7134801e-14,0.0000000
151.25819,1.7098855e-14,0.0000000
151.35821,1.7060915e-14,0.0000000
151.45822,1.7024668e-14,0.0000000
151.55824,1.6988557e-14,0.0000000
151.65825,1.6953072e-14,0.0000000
151.75826,1.6917748e-14,0.0000000
151.85828,1.6880223e-14,0.0000000
151.95829,1.6847611e-14,0.0000000
152.05831,1.6809659e-14,0.0000000
152.15832,1.6774429e-14,0.0000000
152.25833,1.6739051e-14,0.0000000
152.35835,1.6703458e-14,0.0000000
152.45836,1.6668328e-14,0.0000000
152.55838,1.6632199e-14,0.0000000
152.65839,1.6597036e-14,0.0000000
152.75841,1.6563225e-14,0.0000000
152.85842,1.6528057e-14,0.0000000
152.95843,1.6491808e-14,0.0000000
153.05845,1.6459056e-14,0.0000000
153.15846,1.6423292e-14,0.0000000
153.25848,1.6389296e-14,0.0000000
153.35849,1.6353866e-14,0.0000000
153.45851,1.6319352e-14,0.0000000
153.55852,1.6287510e-14,0.0000000
153.65854,1.6250437e-14,0.0000000
153.75855,1.6218473e-14,0.0000000
153.85856,1.6181886e-14,0.0000000
153.95858,1.6149891e-14,0.0000000
154.05859,1.6115199e-14,0.0000000
154.15861,1.6081186e-14,0.0000000
154.25862,1.6046790e-14,0.0000000
154.35864,1.6014937e-14,0.0000000
154.45865,1.5981939e-14,0.0000000
154.55867,1.5946403e-14,0.0000000
154.65868,1.5914026e-14,0.0000000
154.75870,1.5881613e-14,0.0000000
154.85871,1.5847167e-14,0.0000000
154.95873,1.5814496e-14,0.0000000
155.05874,1.5781717e-14,0.0000000
155.15876,1.5747494e-14,0.0000000
155.25877,1.5715609e-14,0.0000000
155.35879,1.5683712e-14,0.0000000
155.45880,1.5651817e-14,0.0000000
155.55882,1.5619632e-14,0.0000000
155.65883,1.5584339e-14,0.0000000
155.75885,1.5551699e-14,0.0000000
155.85886,1.5519803e-14,0.0000000
155.95888,1.5488677e-14,0.0000000
156.05889,1.5456293e-14,0.0000000
156.15891,1.5424139e-14,0.0000000
156.25892,1.5392737e-14,0.0000000
156.35894,1.5360535e-14,0.0000000
156.45895,1.5329445e-14,0.0000000
156.55897,1.5295972e-14,0.0000000
156.65898,1.5264835e-14,0.0000000
156.75900,1.5233712e-14,0.0000000
156.85901,1.5202560e-14,0.0000000
156.95903,1.5171438e-14,0.0000000
157.05904,1.5140283e-14,0.0000000
157.15906,1.5109155e-14,0.0000000
157.25908,1.5077992e-14,0.0000000
157.35909,1.5047484e-14,0.0000000
157.45911,1.5016316e-14,0.0000000
157.55912,1.4985178e-14,0.0000000
157.65914,1.4954004e-14,0.0000000
157.75915,1.4922840e-14,0.0000000
157.85917,1.4891678e-14,0.0000000
157.95918,1.4860970e-14,0.0000000
158.05920,1.4830923e-14,0.0000000
158.15922,1.4799837e-14,0.0000000
158.25923,1.4768803e-14,0.0000000
158.35925,1.4738963e-14,0.0000000
158.45926,1.4708621e-14,0.0000000
158.55928,1.4680486e-14,0.0000000
158.65930,1.4649319e-14,0.0000000
158.75931,1.4618511e-14,0.0000000
158.85933,1.4589640e-14,0.0000000
158.95934,1.4558589e-14,0.0000000
159.05936,1.4530525e-14,0.0000000
159.15937,1.4500504e-14,0.0000000
159.25939,1.4469597e-14,0.0000000
159.35941,1.4440270e-14,0.0000000
159.45942,1.4412135e-14,0.0000000
159.55944,1.4382008e-14,0.0000000
159.65945,1.4352202e-14,0.0000000
159.75947,1.4323973e-14,0.0000000
159.85949,1.4294889e-14,0.0000000
159.95950,1.4264913e-14,0.0000000
160.05952,1.4235724e-14,0.0000000
160.15954,1.4208195e-14,0.0000000
160.25955,1.4179696e-14,0.0000000
160.35957,1.4149766e-14,0.0000000
160.45958,1.4119298e-14,0.0000000
160.55960,1.4094142e-14,0.0000000
160.65962,1.4063781e-14,0.0000000
160.75963,1.4035142e-14,0.0000000
160.85965,1.4006973e-14,0.0000000
160.95967,1.3978919e-14,0.0000000
161.05968,1.3951303e-14,0.0000000
161.15970,1.3921461e-14,0.0000000
161.25971,1.3893448e-14,0.0000000
161.35973,1.3866893e-14,0.0000000
161.45975,1.3836940e-14,0.0000000
161.55976,1.3811003e-14,0.0000000
161.65978,1.3781479e-14,0.0000000
161.75980,1.3755459e-14,0.0000000
161.85981,1.3726511e-14,0.0000000
161.95983,1.3699285e-14,0.0000000
162.05985,1.3670787e-14,0.0000000
162.15986,1.3643836e-14,0.0000000
162.25988,1.3616695e-14,0.0000000
162.35990,1.3589435e-14,0.0000000
162.45991,1.3561259e-14,0.0000000
162.55993,1.3533995e-14,0.0000000
162.65995,1.3507822e-14,0.0000000
162.75996,1.3481475e-14,0.0000000
162.85998,1.3452261e-14,0.0000000
162.96000,1.3427033e-14,0.0000000
163.06001,1.3399983e-14,0.0000000
163.16003,1.3372618e-14,0.0000000
163.26005,1.3345847e-14,0.0000000
163.36007,1.3319440e-14,0.0000000
163.46008,1.3292335e-14,0.0000000
163.56010,1.3265854e-14,0.0000000
163.66012,1.3240353e-14,0.0000000
163.76013,1.3212218e-14,0.0000000
163.86015,1.3187176e-14,0.0000000
163.96017,1.3161234e-14,0.0000000
164.06018,1.3133523e-14,0.0000000
164.16020,1.3108501e-14,0.0000000
164.26022,1.3082483e-14,0.0000000
164.36024,1.3055649e-14,0.0000000
164.46025,1.3029589e-14,0.0000000
164.56027,1.3004013e-14,0.0000000
164.66029,1.2978788e-14,0.0000000
164.76030,1.2951662e-14,0.0000000
164.86032,1.2926382e-14,0.0000000
164.96034,1.2901691e-14,0.0000000
165.06036,1.2875990e-14,0.0000000
165.16037,1.2849950e-14,0.0000000
165.26039,1.2825038e-14,0.0000000
165.36041,1.2798575e-14,0.0000000
165.46043,1.2773309e-14,0.0000000
165.56044,1.2748106e-14,0.0000000
165.66046,1.2723637e-14,0.0000000
165.76048,1.2698610e-14,0.0000000
165.86049,1.2673946e-14,0.0000000
165.96051,1.2647035e-14,0.0000000
166.06053,1.2622498e-14,0.0000000
166.16055,1.2597407e-14,0.0000000
166.26056,1.2572858e-14,0.0000000
166.36058,1.2547204e-14,0.0000000
166.46060,1.2522610e-14,0.0000000
166.56062,1.2498000e-14,0.0000000
166.66064,1.2474344e-14,0.0000000
166.76065,1.2449658e-14,0.0000000
166.86067,1.2425135e-14,0.0000000
166.96069,1.2402873e-14,0.0000000
167.06071,1.2378357e-14,0.0000000
167.16072,1.2352467e-14,0.0000000
167.26074,1.2327937e-14,0.0000000
167.36076,1.2304581e-14,0.0000000
167.46078,1.2280405e-14,0.0000000
167.56079,1.2256397e-14,0.0000000
167.66081,1.2232386e-14,0.0000000
167.76083,1.2208918e-14,0.0000000
167.86085,1.2184987e-14,0.0000000
167.96087,1.2160687e-14,0.0000000
168.06088,1.2136918e-14,0.0000000
168.16090,1.2113232e-14,0.0000000
168.26092,1.2089346e-14,0.0000000
168.36094,1.2065161e-14,0.0000000
168.46095,1.2041277e-14,0.0000000
168.56097,1.2017729e-14,0.0000000
168.66099,1.1995265e-14,0.0000000
168.76101,1.1971247e-14,0.0000000
168.86103,1.1949071e-14,0.0000000
168.96104,1.1925946e-14,0.0000000
169.06106,1.1902674e-14,0.0000000
169.16108,1.1879196e-14,0.0000000
169.26110,1.1855168e-14,0.0000000
169.36112,1.1834157e-14,0.0000000
169.46114,1.1810124e-14,0.0000000
169.56115,1.1786722e-14,0.0000000
169.66117,1.1763659e-14,0.0000000
169.76119,1.1741324e-14,0.0000000
169.86121,1.1717446e-14,0.0000000
169.96123,1.1695258e-14,0.0000000
170.06124,1.1672472e-14,0.0000000
170.16126,1.1648347e-14,0.0000000
170.26128,1.1629430e-14,0.0000000
170.36130,1.1605616e-14,0.0000000
170.46132,1.1583434e-14,0.0000000
170.56134,1.1559949e-14,0.0000000
170.66135,1.1537435e-14,0.0000000
170.76137,1.1516119e-14,0.0000000
170.86139,1.1494149e-14,0.0000000
170.96141,1.1471517e-14,0.0000000
171.06143,1.1448747e-14,0.0000000
171.16145,1.1426814e-14,0.0000000
171.26146,1.1405207e-14,0.0000000
171.36148,1.1383871e-14,0.0000000
171.46150,1.1361361e-14,0.0000000
171.56152,1.1339560e-14,0.0000000
171.66154,1.1318921e-14,0.0000000
171.76156,1.1296694e-14,0.0000000
171.86158,1.1273685e-14,0.0000000
171.96159,1.1253211e-14,0.0000000
172.06161,1.1230859e-14,0.0000000
172.16163,1.1209909e-14,0.0000000
172.26165,1.1188872e-14,0.0000000
172.36167,1.1166620e-14,0.0000000
172.46169,1.1146118e-14,0.0000000
172.56171,1.1124217e-14,0.0000000
172.66172,1.1103650e-14,0.0000000
172.76174,1.1081915e-14,0.0000000
172.86176,1.1061153e-14,0.0000000
172.96178,1.1040158e-14,0.0000000
173.06180,1.1017664e-14,0.0000000
173.16182,1.0997069e-14,0.0000000
173.26184,1.0976275e-14,0.0000000
173.36186,1.0954859e-14,0.0000000
173.46187,1.0934437e-14,0.0000000
173.56189,1.0913975e-14,0.0000000
173.66191,1.0892145e-14,0.0000000
173.76193,1.0872826e-14,0.0000000
173.86195,1.0851380e-14,0.0000000
173.96197,1.0830193e-14,0.0000000
174.06199,1.0810326e-14,0.0000000
174.16201,1.0789434e-14,0.0000000
174.26203,1.0768897e-14,0.0000000
174.36204,1.0748707e-14,0.0000000
174.46206,1.0728978e-14,0.0000000
174.56208,1.0708571e-14,0.0000000
174.66210,1.0688347e-14,0.0000000
174.76212,1.0666480e-14,0.0000000
174.86214,1.0646701e-14,0.0000000
174.96216,1.0627427e-14,0.0000000
175.06218,1.0607849e-14,0.0000000
175.16220,1.0586949e-14,0.0000000
175.26222,1.0567194e-14,0.0000000
175.36224,1.0546133e-14,0.0000000
175.46225,1.0525860e-14,0.0000000
175.56227,1.0507288e-14,0.0000000
175.66229,1.0487762e-14,0.0000000
175.76231,1.0467889e-14,0.0000000
175.86233,1.0448806e-14,0.0000000
175.96235,1.0428168e-14,0.0000000
176.06237,1.0408678e-14,0.0000000
176.16239,1.0388854e-14,0.0000000
176.26241,1.0369470e-14,0.0000000
176.36243,1.0349879e-14,0.0000000
176.46245,1.0330921e-14,0.0000000
176.56247,1.0311512e-14,0.0000000
176.66249,1.0292308e-14,0.0000000
176.76251,1.0271215e-14,0.0000000
176.86252,1.0253312e-14,0.0000000
176.96254,1.0232981e-14,0.0000000
177.06256,1.0214124e-14,0.0000000
177.16258,1.0194020e-14,0.0000000
177.26260,1.0175881e-14,0.0000000
177.36262,1.0157852e-14,0.0000000
177.46264,1.0137849e-14,0.0000000
177.56266,1.0118788e-14,0.0000000
177.66268,1.0100749e-14,0.0000000
177.76270,1.0081004e-14,0.0000000
177.86272,1.0062702e-14,0.0000000
177.96274,1.0043308e-14,0.0000000
178.06276,1.0025472e-14,0.0000000
178.16278,1.0006213e-14,0.0000000
178.26280,9.9865616e-15,0.0000000
178.36282,9.9682912e-15,0.0000000
178.46284,9.9503385e-15,0.0000000
178.56286,9.9313332e-15,0.0000000
178.66288,9.9133765e-15,0.0000000
178.76290,9.8961013e-15,0.0000000
178.86291,9.8782543e-15,0.0000000
178.96293,9.8581475e-15,0.0000000
179.06295,9.8396897e-15,0.0000000
179.16297,9.8213956e-15,0.0000000
179.26299,9.8041435e-15,0.0000000
179.36301,9.7850275e-15,0.0000000
179.46303,9.7682062e-15,0.0000000
179.56305,9.7496179e-15,0.0000000
179.66307,9.7313302e-15,0.0000000
179.76309,9.7127222e-15,0.0000000
179.86311,9.6947577e-15,0.0000000
179.96313,9.6785899e-15,0.0000000
180.06315,9.6606203e-15,0.0000000
180.16317,9.6416260e-15,0.0000000
180.26319,9.6239944e-15,0.0000000
180.36321,9.6063848e-15,0.0000000
180.46323,9.5884356e-15,0.0000000
180.56325,9.5704333e-15,0.0000000
180.66327,9.5534977e-15,0.0000000
180.76329,9.5359552e-15,0.0000000
180.86331,9.5180014e-15,0.0000000
180.96333,9.4997448e-15,0.0000000
181.06335,9.4819712e-15,0.0000000
181.16337,9.4661365e-15,0.0000000
181.26339,9.4475480e-15,0.0000000
181.36341,9.4306302e-15,0.0000000
181.46343,9.4133350e-15,0.0000000
181.56345,9.3956655e-15,0.0000000
181.66347,9.3786423e-15,0.0000000
181.76349,9.3607994e-15,0.0000000
181.86351,9.3439638e-15,0.0000000
181.96353,9.3280103e-15,0.0000000
182.06355,9.3102689e-15,0.0000000
182.16357,9.2932018e-15,0.0000000
182.26359,9.2760034e-15,0.0000000
182.36361,9.2577357e-15,0.0000000
182.46363,9.2407665e-15,0.0000000
182.56365,9.2251634e-15,0.0000000
182.66367,9.2071849e-15,0.0000000
182.76369,9.1907306e-15,0.0000000
182.86371,9.1746054e-15,0.0000000
182.96373,9.1566238e-15,0.0000000
183.06375,9.1420236e-15,0.0000000
183.16377,9.1240469e-15,0.0000000
183.26379,9.1071201e-15,0.0000000
183.36381,9.0914490e-15,0.0000000
183.46383,9.0745272e-15,0.0000000
183.56386,9.0574923e-15,0.0000000
183.66388,9.0404607e-15,0.0000000
183.76390,9.0230643e-15,0.0000000
183.86392,9.0074504e-15,0.0000000
183.96394,8.9899802e-15,0.0000000
184.06396,8.9759117e-15,0.0000000
184.16398,8.9581961e-15,0.0000000
184.26400,8.9433084e-15,0.0000000
184.36402,8.9262670e-15,0.0000000
184.46404,8.9098779e-15,0.0000000
184.56406,8.8943287e-15,0.0000000
184.66408,8.8776119e-15,0.0000000
184.76410,8.8623995e-15,0.0000000
184.86412,8.8447554e-15,0.0000000
184.96414,8.8304514e-15,0.0000000
185.06416,8.8127942e-15,0.0000000
185.16418,8.7985114e-15,0.0000000
185.26420,8.7813403e-15,0.0000000
185.36422,8.7665613e-15,0.0000000
185.46424,8.7491094e-15,0.0000000
185.56426,8.7346048e-15,0.0000000
185.66428,8.7179184e-15,0.0000000
185.76431,8.7026481e-15,0.0000000
185.86433,8.6860399e-15,0.0000000
185.96435,8.6706936e-15,0.0000000
186.06437,8.6547029e-15,0.0000000
186.16439,8.6401408e-15,0.0000000
186.26441,8.6243500e-15,0.0000000
186.36443,8.6097994e-15,0.0000000
186.46445,8.5940779e-15,0.0000000
186.56447,8.5778247e-15,0.0000000
186.66449,8.5630656e-15,0.0000000
186.76451,8.5458938e-15,0.0000000
186.86453,8.5321678e-15,0.0000000
186.96455,8.5167334e-15,0.0000000
187.06457,8.5001811e-15,0.0000000
187.16460,8.4858795e-15,0.0000000
187.26462,8.4685297e-15,0.0000000
187.36464,8.4552520e-15,0.0000000
187.46466,8.4415644e-15,0.0000000
187.56468,8.4247783e-15,0.0000000
187.66470,8.4095715e-15,0.0000000
187.76472,8.3942928e-15,0.0000000
187.86474,8.3786015e-15,0.0000000
187.96476,8.3648138e-15,0.0000000
188.06478,8.3501715e-15,0.0000000
188.16480,8.3342942e-15,0.0000000
188.26482,8.3193475e-15,0.0000000
188.36485,8.3052221e-15,0.0000000
188.46487,8.2885917e-15,0.0000000
188.56489,8.2756867e-15,0.0000000
188.66491,8.2606405e-15,0.0000000
188.76493,8.2443388e-15,0.0000000
188.86495,8.2309646e-15,0.0000000
188.96497,8.2161505e-15,0.0000000
189.06499,8.1996071e-15,0.0000000
189.16501,8.1868765e-15,0.0000000
189.26503,8.1729848e-15,0.0000000
189.36506,8.1562333e-15,0.0000000
189.46508,8.1422403e-15,0.0000000
189.56510,8.1282474e-15,0.0000000
189.66512,8.1142376e-15,0.0000000
189.76514,8.0988596e-15,0.0000000
189.86516,8.0848628e-15,0.0000000
189.96518,8.0708513e-15,0.0000000
190.06520,8.0545386e-15,0.0000000
190.16522,8.0420479e-15,0.0000000
190.26525,8.0274562e-15,0.0000000
190.36527,8.0134521e-15,0.0000000
190.46529,7.9987975e-15,0.0000000
190.56531,7.9837441e-15,0.0000000
190.66533,7.9710963e-15,0.0000000
190.76535,7.9560286e-15,0.0000000
190.86537,7.9426417e-15,0.0000000
190.96539,7.9266444e-15,0.0000000
191.06541,7.9136620e-15,0.0000000
191.16544,7.9002714e-15,0.0000000
191.26546,7.8862558e-15,0.0000000
191.36548,7.8729697e-15,0.0000000
191.46550,7.8591517e-15,0.0000000
191.56552,7.8428191e-15,0.0000000
191.66554,7.8291493e-15,0.0000000
191.76556,7.8167647e-15,0.0000000
191.86558,7.8027429e-15,0.0000000
191.96561,7.7887204e-15,0.0000000
192.06563,7.7766830e-15,0.0000000
192.16565,7.7626580e-15,0.0000000
192.26567,7.7463193e-15,0.0000000
192.36569,7.7339940e-15,0.0000000
192.46571,7.7191979e-15,0.0000000
192.56573,7.7057937e-15,0.0000000
192.66576,7.6931268e-15,0.0000000
192.76578,7.6790974e-15,0.0000000
192.86580,7.6656899e-15,0.0000000
192.96582,7.6530246e-15,0.0000000
193.06584,7.6396121e-15,0.0000000
193.16586,7.6258161e-15,0.0000000
193.26588,7.6111563e-15,0.0000000
193.36591,7.5980693e-15,0.0000000
193.46593,7.5843591e-15,0.0000000
193.56595,7.5720101e-15,0.0000000
193.66597,7.5589201e-15,0.0000000
