wave,flux,fluxerr
135.05642,1.2770475e-14,0.0000000
135.15643,1.2749644e-14,0.0000000
135.25644,1.2728736e-14,0.0000000
135.35644,1.2708791e-14,0.0000000
135.45645,1.2687915e-14,0.0000000
135.55646,1.2667102e-14,0.0000000
135.65647,1.2646698e-14,0.0000000
135.75648,1.2626027e-14,0.0000000
135.85648,1.2605582e-14,0.0000000
135.95649,1.2584523e-14,0.0000000
136.05650,1.2564571e-14,0.0000000
136.15651,1.2544039e-14,0.0000000
136.25652,1.2522909e-14,0.0000000
136.35652,1.2502461e-14,0.0000000
136.45653,1.2481903e-14,0.0000000
136.55654,1.2461723e-14,0.0000000
136.65655,1.2441228e-14,0.0000000
136.75656,1.2420066e-14,0.0000000
136.85657,1.2399372e-14,0.0000000
136.95657,1.2379065e-14,0.0000000
137.05658,1.2358624e-14,0.0000000
137.15659,1.2338667e-14,0.0000000
137.25660,1.2318360e-14,0.0000000
137.35661,1.2297602e-14,0.0000000
137.45662,1.2276900e-14,0.0000000
137.55663,1.2256702e-14,0.0000000
137.65663,1.2236525e-14,0.0000000
137.75664,1.2216195e-14,0.0000000
137.85665,1.2195554e-14,0.0000000
137.95666,1.2175448e-14,0.0000000
138.05667,1.2154887e-14,0.0000000
138.15668,1.2134720e-14,0.0000000
138.25669,1.2113798e-14,0.0000000
138.35670,1.2094348e-14,0.0000000
138.45671,1.2074132e-14,0.0000000
138.55671,1.2053448e-14,0.0000000
138.65672,1.2032727e-14,0.0000000
138.75673,1.2012756e-14,0.0000000
138.85674,1.1992514e-14,0.0000000
138.95675,1.1972349e-14,0.0000000
139.05676,1.1952058e-14,0.0000000
139.15677,1.1932171e-14,0.0000000
139.25678,1.1911747e-14,0.0000000
139.35679,1.1892036e-14,0.0000000
139.45680,1.1871817e-14,0.0000000
139.55681,1.1851743e-14,0.0000000
139.65682,1.1831059e-14,0.0000000
139.75683,1.1811018e-14,0.0000000
139.85684,1.1791448e-14,0.0000000
139.95685,1.1771289e-14,0.0000000
140.05686,1.1751146e-14,0.0000000
140.15687,1.1731299e-14,0.0000000
140.25688,1.1710679e-14,0.0000000
140.35689,1.1691585e-14,0.0000000
140.45690,1.1670841e-14,0.0000000
140.55691,1.1651353e-14,0.0000000
140.65692,1.1631252e-14,0.0000000
140.75693,1.1611588e-14,0.0000000
140.85694,1.1591481e-14,0.0000000
140.95695,1.1571672e-14,0.0000000
141.05696,1.1551809e-14,0.0000000
141.15697,1.1531616e-14,0.0000000
141.25698,1.1511916e-14,0.0000000
141.35699,1.1492416e-14,0.0000000
141.45700,1.1472572e-14,0.0000000
141.55701,1.1452920e-14,0.0000000
141.65702,1.1432990e-14,0.0000000
141.75703,1.1413360e-14,0.0000000
141.85704,1.1393712e-14,0.0000000
141.95705,1.1373714e-14,0.0000000
142.05706,1.1353942e-14,0.0000000
142.15707,1.1334547e-14,0.0000000
142.25708,1.1315097e-14,0.0000000
142.35709,1.1295509e-14,0.0000000
142.45711,1.1275796e-14,0.0000000
142.55712,1.1256445e-14,0.0000000
142.65713,1.1236623e-14,0.0000000
142.75714,1.1216782e-14,0.0000000
142.85715,1.1198190e-14,0.0000000
142.95716,1.1178264e-14,0.0000000
143.05717,1.1158689e-14,0.0000000
143.15718,1.1139026e-14,0.0000000
143.25719,1.1119638e-14,0.0000000
143.35720,1.1100825e-14,0.0000000
143.45722,1.1081546e-14,0.0000000
143.55723,1.1061846e-14,0.0000000
143.65724,1.1042812e-14,0.0000000
143.75725,1.1023456e-14,0.0000000
143.85726,1.1004346e-14,0.0000000
143.95727,1.0984023e-14,0.0000000
144.05728,1.0965668e-14,0.0000000
144.15729,1.0946465e-14,0.0000000
144.25731,1.0926634e-14,0.0000000
144.35732,1.0907858e-14,0.0000000
144.45733,1.0888809e-14,0.0000000
144.55734,1.0869671e-14,0.0000000
144.65735,1.0850601e-14,0.0000000
144.75736,1.0831399e-14,0.0000000
144.85738,1.0812203e-14,0.0000000
144.95739,1.0792966e-14,0.0000000
145.05740,1.0774158e-14,0.0000000
145.15741,1.0755093e-14,0.0000000
145.25742,1.0736374e-14,0.0000000
145.35743,1.0717436e-14,0.0000000
145.45745,1.0698470e-14,0.0000000
145.55746,1.0679790e-14,0.0000000
145.65747,1.0660449e-14,0.0000000
145.75748,1.0641487e-14,0.0000000
145.85749,1.0622568e-14,0.0000000
145.95751,1.0603727e-14,0.0000000
146.05752,1.0585044e-14,0.0000000
146.15753,1.0566163e-14,0.0000000
146.25754,1.0547856e-14,0.0000000
146.35756,1.0529066e-14,0.0000000
146.45757,1.0510162e-14,0.0000000
146.55758,1.0491275e-14,0.0000000
146.65759,1.0472968e-14,0.0000000
146.75760,1.0454434e-14,0.0000000
146.85762,1.0435728e-14,0.0000000
146.95763,1.0417089e-14,0.0000000
147.05764,1.0398733e-14,0.0000000
147.15765,1.0380296e-14,0.0000000
147.25767,1.0361246e-14,0.0000000
147.35768,1.0342964e-14,0.0000000
147.45769,1.0325075e-14,0.0000000
147.55770,1.0305838e-14,0.0000000
147.65772,1.0287875e-14,0.0000000
147.75773,1.0268940e-14,0.0000000
147.85774,1.0251007e-14,0.0000000
147.95776,1.0232608e-14,0.0000000
148.05777,1.0214037e-14,0.0000000
148.15778,1.0196113e-14,0.0000000
148.25779,1.0177486e-14,0.0000000
148.35781,1.0159741e-14,0.0000000
148.45782,1.0140970e-14,0.0000000
148.55783,1.0123095e-14,0.0000000
148.65785,1.0104685e-14,0.0000000
148.75786,1.0086694e-14,0.0000000
148.85787,1.0068633e-14,0.0000000
148.95788,1.0050166e-14,0.0000000
149.05790,1.0032301e-14,0.0000000
149.15791,1.0014360e-14,0.0000000
149.25792,9.9962068e-15,0.0000000
149.35794,9.9779704e-15,0.0000000
149.45795,9.9605150e-15,0.0000000
149.55796,9.9423708e-15,0.0000000
149.65798,9.9242425e-15,0.0000000
149.75799,9.9063554e-15,0.0000000
149.85800,9.8886985e-15,0.0000000
149.95802,9.8703430e-15,0.0000000
150.05803,9.8528048e-15,0.0000000
150.15804,9.8351962e-15,0.0000000
150.25806,9.8174061e-15,0.0000000
150.35807,9.7996059e-15,0.0000000
150.45809,9.7817466e-15,0.0000000
150.55810,9.7640010e-15,0.0000000
150.65811,9.7463505e-15,0.0000000
150.75813,9.7286463e-15,0.0000000
150.85814,9.7109722e-15,0.0000000
150.95815,9.6931609e-15,0.0000000
151.05817,9.6763734e-15,0.0000000
151.15818,9.6583979e-15,0.0000000
151.25819,9.6409723e-15,0.0000000
151.35821,9.6230651e-15,0.0000000
151.45822,9.6055008e-15,0.0000000
151.55824,9.5881987e-15,0.0000000
151.65825,9.5708674e-15,0.0000000
151.75826,9.5533534e-15,0.0000000
151.85828,9.5358828e-15,0.0000000
151.95829,9.5183116e-15,0.0000000
152.05831,9.5013835e-15,0.0000000
152.15832,9.4835149e-15,0.0000000
152.25833,9.4662006e-15,0.0000000
152.35835,9.4499279e-15,0.0000000
152.45836,9.4321647e-15,0.0000000
152.55838,9.4143670e-15,0.0000000
152.65839,9.3974863e-15,0.0000000
152.75841,9.3807683e-15,0.0000000
152.85842,9.3633596e-15,0.0000000
152.95843,9.3457057e-15,0.0000000
153.05845,9.3291216e-15,0.0000000
153.15846,9.3118093e-15,0.0000000
153.25848,9.2948254e-15,0.0000000
153.35849,9.2778439e-15,0.0000000
153.45851,9.2607340e-15,0.0000000
153.55852,9.2437806e-15,0.0000000
153.65854,9.2270098e-15,0.0000000
153.75855,9.2101741e-15,0.0000000
153.85856,9.1929231e-15,0.0000000
153.95858,9.1763915e-15,0.0000000
154.05859,9.1597162e-15,0.0000000
154.15861,9.1421968e-15,0.0000000
154.25862,9.1259170e-15,0.0000000
154.35864,9.1093673e-15,0.0000000
154.45865,9.0922455e-15,0.0000000
154.55867,9.0750358e-15,0.0000000
154.65868,9.0587246e-15,0.0000000
154.75870,9.0423836e-15,0.0000000
154.85871,9.0253943e-15,0.0000000
154.95873,9.0088527e-15,0.0000000
155.05874,8.9922750e-15,0.0000000
155.15876,8.9759153e-15,0.0000000
155.25877,8.9594419e-15,0.0000000
155.35879,8.9425339e-15,0.0000000
155.45880,8.9261364e-15,0.0000000
155.55882,8.9097070e-15,0.0000000
155.65883,8.8932599e-15,0.0000000
155.75885,8.8766461e-15,0.0000000
155.85886,8.8602260e-15,0.0000000
155.95888,8.8440305e-15,0.0000000
156.05889,8.8276342e-15,0.0000000
156.15891,8.8112117e-15,0.0000000
156.25892,8.7947363e-15,0.0000000
156.35894,8.7785232e-15,0.0000000
156.45895,8.7622964e-15,0.0000000
156.55897,8.7465422e-15,0.0000000
156.65898,8.7301741e-15,0.0000000
156.75900,8.7137916e-15,0.0000000
156.85901,8.6973696e-15,0.0000000
156.95903,8.6809420e-15,0.0000000
157.05904,8.6648906e-15,0.0000000
157.15906,8.6499003e-15,0.0000000
157.25908,8.6335111e-15,0.0000000
157.35909,8.6170714e-15,0.0000000
157.45911,8.6012108e-15,0.0000000
157.55912,8.5850994e-15,0.0000000
157.65914,8.5691633e-15,0.0000000
157.75915,8.5531838e-15,0.0000000
157.85917,8.5375621e-15,0.0000000
157.95918,8.5215695e-15,0.0000000
158.05920,8.5050594e-15,0.0000000
158.15922,8.4903657e-15,0.0000000
158.25923,8.4737146e-15,0.0000000
158.35925,8.4581246e-15,0.0000000
158.45926,8.4422795e-15,0.0000000
158.55928,8.4267237e-15,0.0000000
158.65930,8.4108515e-15,0.0000000
158.75931,8.3953116e-15,0.0000000
158.85933,8.3797362e-15,0.0000000
158.95934,8.3632099e-15,0.0000000
159.05936,8.3484097e-15,0.0000000
159.15937,8.3328362e-15,0.0000000
159.25939,8.3173731e-15,0.0000000
159.35941,8.3016423e-15,0.0000000
159.45942,8.2858070e-15,0.0000000
159.55944,8.2702345e-15,0.0000000
159.65945,8.2549398e-15,0.0000000
159.75947,8.2388503e-15,0.0000000
159.85949,8.2239778e-15,0.0000000
159.95950,8.2084073e-15,0.0000000
160.05952,8.1928825e-15,0.0000000
160.15954,8.1780015e-15,0.0000000
160.25955,8.1627295e-15,0.0000000
160.35957,8.1472756e-15,0.0000000
160.45958,8.1314579e-15,0.0000000
160.55960,8.1163821e-15,0.0000000
160.65962,8.1017484e-15,0.0000000
160.75963,8.0860123e-15,0.0000000
160.85965,8.0709453e-15,0.0000000
160.95967,8.0561075e-15,0.0000000
161.05968,8.0402518e-15,0.0000000
161.15970,8.0251876e-15,0.0000000
161.25971,8.0104809e-15,0.0000000
161.35973,7.9954137e-15,0.0000000
161.45975,7.9803199e-15,0.0000000
161.55976,7.9648296e-15,0.0000000
161.65978,7.9500545e-15,0.0000000
161.75980,7.9350577e-15,0.0000000
161.85981,7.9205450e-15,0.0000000
161.95983,7.9056469e-15,0.0000000
162.05985,7.8903466e-15,0.0000000
162.15986,7.8754148e-15,0.0000000
162.25988,7.8604617e-15,0.0000000
162.35990,7.8458925e-15,0.0000000
162.45991,7.8306015e-15,0.0000000
162.55993,7.8160401e-15,0.0000000
162.65995,7.8009924e-15,0.0000000
162.75996,7.7865213e-15,0.0000000
162.85998,7.7714636e-15,0.0000000
162.96000,7.7570676e-15,0.0000000
163.06001,7.7423556e-15,0.0000000
163.16003,7.7278658e-15,0.0000000
163.26005,7.7132261e-15,0.0000000
163.36007,7.6990272e-15,0.0000000
163.46008,7.6840207e-15,0.0000000
163.56010,7.6693137e-15,0.0000000
163.66012,7.6544986e-15,0.0000000
163.76013,7.6406389e-15,0.0000000
163.86015,7.6258066e-15,0.0000000
163.96017,7.6109842e-15,0.0000000
164.06018,7.5973457e-15,0.0000000
164.16020,7.5827739e-15,0.0000000
164.26022,7.5679853e-15,0.0000000
164.36024,7.5535561e-15,0.0000000
164.46025,7.5390362e-15,0.0000000
164.56027,7.5248889e-15,0.0000000
164.66029,7.5106175e-15,0.0000000
164.76030,7.4962168e-15,0.0000000
164.86032,7.4817401e-15,0.0000000
164.96034,7.4674113e-15,0.0000000
165.06036,7.4533377e-15,0.0000000
165.16037,7.4392765e-15,0.0000000
165.26039,7.4252148e-15,0.0000000
165.36041,7.4110102e-15,0.0000000
165.46043,7.3966305e-15,0.0000000
165.56044,7.3825527e-15,0.0000000
165.66046,7.3687055e-15,0.0000000
165.76048,7.3543976e-15,0.0000000
165.86049,7.3404643e-15,0.0000000
165.96051,7.3261169e-15,0.0000000
166.06053,7.3127399e-15,0.0000000
166.16055,7.2983627e-15,0.0000000
166.26056,7.2841925e-15,0.0000000
166.36058,7.2704419e-15,0.0000000
166.46060,7.2564423e-15,0.0000000
166.56062,7.2425919e-15,0.0000000
166.66064,7.2284485e-15,0.0000000
166.76065,7.2145198e-15,0.0000000
166.86067,7.2008862e-15,0.0000000
166.96069,7.1872796e-15,0.0000000
167.06071,7.1733644e-15,0.0000000
167.16072,7.1596731e-15,0.0000000
167.26074,7.1457487e-15,0.0000000
167.36076,7.1319587e-15,0.0000000
167.46078,7.1189593e-15,0.0000000
167.56079,7.1041089e-15,0.0000000
167.66081,7.0911923e-15,0.0000000
167.76083,7.0765913e-15,0.0000000
167.86085,7.0635320e-15,0.0000000
167.96087,7.0503415e-15,0.0000000
168.06088,7.0362387e-15,0.0000000
168.16090,7.0231478e-15,0.0000000
168.26092,7.0095942e-15,0.0000000
168.36094,6.9957693e-15,0.0000000
168.46095,6.9826368e-15,0.0000000
168.56097,6.9690399e-15,0.0000000
168.66099,6.9551602e-15,0.0000000
168.76101,6.9419852e-15,0.0000000
168.86103,6.9283468e-15,0.0000000
168.96104,6.9151447e-15,0.0000000
169.06106,6.9017260e-15,0.0000000
169.16108,6.8885263e-15,0.0000000
169.26110,6.8749102e-15,0.0000000
169.36112,6.8616411e-15,0.0000000
169.46114,6.8484587e-15,0.0000000
169.56115,6.8354163e-15,0.0000000
169.66117,6.8217866e-15,0.0000000
169.76119,6.8083286e-15,0.0000000
169.86121,6.7950132e-15,0.0000000
169.96123,6.7816888e-15,0.0000000
170.06124,6.7691928e-15,0.0000000
170.16126,6.7559994e-15,0.0000000
170.26128,6.7426435e-15,0.0000000
170.36130,6.7294192e-15,0.0000000
170.46132,6.7169094e-15,0.0000000
170.56134,6.7035253e-15,0.0000000
170.66135,6.6907440e-15,0.0000000
170.76137,6.6777321e-15,0.0000000
170.86139,6.6643192e-15,0.0000000
170.96141,6.6514962e-15,0.0000000
171.06143,6.6384550e-15,0.0000000
171.16145,6.6256267e-15,0.0000000
171.26146,6.6132719e-15,0.0000000
171.36148,6.6004242e-15,0.0000000
171.46150,6.5872389e-15,0.0000000
171.56152,6.5746145e-15,0.0000000
171.66154,6.5617501e-15,0.0000000
171.76156,6.5488604e-15,0.0000000
171.86158,6.5363259e-15,0.0000000
171.96159,6.5231565e-15,0.0000000
172.06161,6.5108750e-15,0.0000000
172.16163,6.4976335e-15,0.0000000
172.26165,6.4853860e-15,0.0000000
172.36167,6.4721160e-15,0.0000000
172.46169,6.4598434e-15,0.0000000
172.56171,6.4472764e-15,0.0000000
172.66172,6.4349901e-15,0.0000000
172.76174,6.4216927e-15,0.0000000
172.86176,6.4098307e-15,0.0000000
172.96178,6.3965094e-15,0.0000000
173.06180,6.3848943e-15,0.0000000
173.16182,6.3722372e-15,0.0000000
173.26184,6.3592124e-15,0.0000000
173.36186,6.3470753e-15,0.0000000
173.46187,6.3352605e-15,0.0000000
173.56189,6.3222791e-15,0.0000000
173.66191,6.3098993e-15,0.0000000
173.76193,6.2976842e-15,0.0000000
173.86195,6.2854746e-15,0.0000000
173.96197,6.2728501e-15,0.0000000
174.06199,6.2602570e-15,0.0000000
174.16201,6.2487754e-15,0.0000000
174.26203,6.2363286e-15,0.0000000
174.36204,6.2239796e-15,0.0000000
174.46206,6.2115857e-15,0.0000000
174.56208,6.1994466e-15,0.0000000
174.66210,6.1874889e-15,0.0000000
174.76212,6.1753185e-15,0.0000000
174.86214,6.1635343e-15,0.0000000
174.96216,6.1508730e-15,0.0000000
175.06218,6.1386761e-15,0.0000000
175.16220,6.1263556e-15,0.0000000
175.26222,6.1147830e-15,0.0000000
175.36224,6.1022928e-15,0.0000000
175.46225,6.0908600e-15,0.0000000
175.56227,6.0783762e-15,0.0000000
175.66229,6.0672617e-15,0.0000000
175.76231,6.0548630e-15,0.0000000
175.86233,6.0427657e-15,0.0000000
175.96235,6.0306466e-15,0.0000000
176.06237,6.0186103e-15,0.0000000
176.16239,6.0070457e-15,0.0000000
176.26241,5.9947743e-15,0.0000000
176.36243,5.9835310e-15,0.0000000
176.46245,5.9711751e-15,0.0000000
176.56247,5.9599791e-15,0.0000000
176.66249,5.9477121e-15,0.0000000
176.76251,5.9363914e-15,0.0000000
176.86252,5.9244783e-15,0.0000000
176.96254,5.9127619e-15,0.0000000
177.06256,5.9010650e-15,0.0000000
177.16258,5.8890964e-15,0.0000000
177.26260,5.8777164e-15,0.0000000
177.36262,5.8657513e-15,0.0000000
177.46264,5.8541230e-15,0.0000000
177.56266,5.8429866e-15,0.0000000
177.66268,5.8315410e-15,0.0000000
177.76270,5.8194675e-15,0.0000000
177.86272,5.8079014e-15,0.0000000
177.96274,5.7965704e-15,0.0000000
178.06276,5.7840751e-15,0.0000000
178.16278,5.7727321e-15,0.0000000
178.26280,5.7623721e-15,0.0000000
178.36282,5.7500158e-15,0.0000000
178.46284,5.7384804e-15,0.0000000
178.56286,5.7271031e-15,0.0000000
178.66288,5.7163174e-15,0.0000000
178.76290,5.7043781e-15,0.0000000
178.86291,5.6927445e-15,0.0000000
178.96293,5.6813236e-15,0.0000000
179.06295,5.6705101e-15,0.0000000
179.16297,5.6591220e-15,0.0000000
179.26299,5.6475760e-15,0.0000000
179.36301,5.6365656e-15,0.0000000
179.46303,5.6247723e-15,0.0000000
179.56305,5.6134749e-15,0.0000000
179.66307,5.6026094e-15,0.0000000
179.76309,5.5913648e-15,0.0000000
179.86311,5.5798254e-15,0.0000000
179.96313,5.5686687e-15,0.0000000
180.06315,5.5572350e-15,0.0000000
180.16317,5.5462463e-15,0.0000000
180.26319,5.5349121e-15,0.0000000
180.36321,5.5240540e-15,0.0000000
180.46323,5.5125944e-15,0.0000000
180.56325,5.5017550e-15,0.0000000
180.66327,5.4902140e-15,0.0000000
180.76329,5.4787689e-15,0.0000000
180.86331,5.4684636e-15,0.0000000
180.96333,5.4571517e-15,0.0000000
181.06335,5.4461891e-15,0.0000000
181.16337,5.4354936e-15,0.0000000
181.26339,5.4241514e-15,0.0000000
181.36341,5.4138031e-15,0.0000000
181.46343,5.4021136e-15,0.0000000
181.56345,5.3913980e-15,0.0000000
181.66347,5.3796799e-15,0.0000000
181.76349,5.3695467e-15,0.0000000
181.86351,5.3581291e-15,0.0000000
181.96353,5.3472043e-15,0.0000000
182.06355,5.3359578e-15,0.0000000
182.16357,5.3258057e-15,0.0000000
182.26359,5.3143182e-15,0.0000000
182.36361,5.3039822e-15,0.0000000
182.46363,5.2927188e-15,0.0000000
182.56365,5.2820492e-15,0.0000000
182.66367,5.2711117e-15,0.0000000
182.76369,5.2603923e-15,0.0000000
182.86371,5.2496587e-15,0.0000000
182.96373,5.2387673e-15,0.0000000
183.06375,5.2280212e-15,0.0000000
183.16377,5.2171870e-15,0.0000000
183.26379,5.2063792e-15,0.0000000
183.36381,5.1955659e-15,0.0000000
183.46383,5.1853355e-15,0.0000000
183.56386,5.1745844e-15,0.0000000
183.66388,5.1636769e-15,0.0000000
183.76390,5.1530850e-15,0.0000000
183.86392,5.1427655e-15,0.0000000
183.96394,5.1312348e-15,0.0000000
184.06396,5.1213709e-15,0.0000000
184.16398,5.1107939e-15,0.0000000
184.26400,5.0998172e-15,0.0000000
184.36402,5.0894033e-15,0.0000000
184.46404,5.0787218e-15,0.0000000
184.56406,5.0678378e-15,0.0000000
184.66408,5.0578442e-15,0.0000000
184.76410,5.0473754e-15,0.0000000
184.86412,5.0362827e-15,0.0000000
184.96414,5.0261727e-15,0.0000000
185.06416,5.0159376e-15,0.0000000
185.16418,5.0050424e-15,0.0000000
185.26420,4.9944979e-15,0.0000000
185.36422,4.9844718e-15,0.0000000
185.46424,4.9737560e-15,0.0000000
185.56426,4.9631622e-15,0.0000000
185.66428,4.9526247e-15,0.0000000
185.76431,4.9425600e-15,0.0000000
185.86433,4.9324483e-15,0.0000000
185.96435,4.9218052e-15,0.0000000
186.06437,4.9114244e-15,0.0000000
186.16439,4.9006300e-15,0.0000000
186.26441,4.8904140e-15,0.0000000
186.36443,4.8802181e-15,0.0000000
186.46445,4.8700238e-15,0.0000000
186.56447,4.8598596e-15,0.0000000
186.66449,4.8495171e-15,0.0000000
186.76451,4.8391395e-15,0.0000000
186.86453,4.8288218e-15,0.0000000
186.96455,4.8184022e-15,0.0000000
187.06457,4.8085856e-15,0.0000000
187.16460,4.7980507e-15,0.0000000
187.26462,4.7878881e-15,0.0000000
187.36464,4.7778247e-15,0.0000000
187.46466,4.7672272e-15,0.0000000
187.56468,4.7570632e-15,0.0000000
187.66470,4.7470009e-15,0.0000000
187.76472,4.7367763e-15,0.0000000
187.86474,4.7264642e-15,0.0000000
187.96476,4.7164538e-15,0.0000000
188.06478,4.7062311e-15,0.0000000
188.16480,4.6963492e-15,0.0000000
188.26482,4.6860065e-15,0.0000000
188.36485,4.6757177e-15,0.0000000
188.46487,4.6660862e-15,0.0000000
188.56489,4.6559043e-15,0.0000000
188.66491,4.6456830e-15,0.0000000
188.76493,4.6358478e-15,0.0000000
188.86495,4.6253265e-15,0.0000000
188.96497,4.6158558e-15,0.0000000
189.06499,4.6057505e-15,0.0000000
189.16501,4.5951892e-15,0.0000000
189.26503,4.5855848e-15,0.0000000
189.36506,4.5751102e-15,0.0000000
189.46508,4.5659821e-15,0.0000000
189.56510,4.5554123e-15,0.0000000
189.66512,4.5462589e-15,0.0000000
189.76514,4.5357276e-15,0.0000000
189.86516,4.5260222e-15,0.0000000
189.96518,4.5160791e-15,0.0000000
190.06520,4.5062319e-15,0.0000000
190.16522,4.4959514e-15,0.0000000
190.26525,4.4860320e-15,0.0000000
190.36527,4.4762082e-15,0.0000000
190.46529,4.4664266e-15,0.0000000
190.56531,4.4562801e-15,0.0000000
190.66533,4.4468571e-15,0.0000000
190.76535,4.4370373e-15,0.0000000
190.86537,4.4273082e-15,0.0000000
190.96539,4.4174772e-15,0.0000000
191.06541,4.4075189e-15,0.0000000
191.16544,4.3977825e-15,0.0000000
191.26546,4.3881475e-15,0.0000000
191.36548,4.3783902e-15,0.0000000
191.46550,4.3685942e-15,0.0000000
191.56552,4.3584635e-15,0.0000000
191.66554,4.3487332e-15,0.0000000
191.76556,4.3390644e-15,0.0000000
191.86558,4.3293021e-15,0.0000000
191.96561,4.3195134e-15,0.0000000
192.06563,4.3101089e-15,0.0000000
192.16565,4.3000818e-15,0.0000000
192.26567,4.2904640e-15,0.0000000
192.36569,4.2809800e-15,0.0000000
192.46571,4.2715156e-15,0.0000000
192.56573,4.2618901e-15,0.0000000
192.66576,4.2517942e-15,0.0000000
192.76578,4.2422427e-15,0.0000000
192.86580,4.2326583e-15,0.0000000
192.96582,4.2234644e-15,0.0000000
193.06584,4.2139424e-15,0.0000000
193.16586,4.2041741e-15,0.0000000
193.26588,4.1945705e-15,0.0000000
193.36591,4.1851412e-15,0.0000000
193.46593,4.1753716e-15,0.0000000
193.56595,4.1654997e-15,0.0000000
193.66597,4.1561299e-15,0.0000000
