wave,flux,fluxerr
1350.5642,4.9263889e-14,0.0000000
1351.5643,4.9155104e-14,0.0000000
1352.5644,4.9046258e-14,0.0000000
1353.5644,4.8940171e-14,0.0000000
1354.5645,4.8831380e-14,0.0000000
1355.5646,4.8722674e-14,0.0000000
1356.5647,4.8616076e-14,0.0000000
1357.5648,4.8511005e-14,0.0000000
1358.5648,4.8402451e-14,0.0000000
1359.5649,4.8294804e-14,0.0000000
1360.5650,4.8190686e-14,0.0000000
1361.5651,4.8084213e-14,0.0000000
1362.5652,4.7975629e-14,0.0000000
1363.5652,4.7872044e-14,0.0000000
1364.5653,4.7764533e-14,0.0000000
1365.5654,4.7660680e-14,0.0000000
1366.5655,4.7555704e-14,0.0000000
1367.5656,4.7450685e-14,0.0000000
1368.5657,4.7345178e-14,0.0000000
1369.5657,4.7242265e-14,0.0000000
1370.5658,4.7138681e-14,0.0000000
1371.5659,4.7034484e-14,0.0000000
1372.5660,4.6933523e-14,0.0000000
1373.5661,4.6828845e-14,0.0000000
1374.5662,4.6724127e-14,0.0000000
1375.5663,4.6623485e-14,0.0000000
1376.5663,4.6521865e-14,0.0000000
1377.5664,4.6420138e-14,0.0000000
1378.5665,4.6316938e-14,0.0000000
1379.5666,4.6214681e-14,0.0000000
1380.5667,4.6115147e-14,0.0000000
1381.5668,4.6013379e-14,0.0000000
1382.5669,4.5909903e-14,0.0000000
1383.5670,4.5812374e-14,0.0000000
1384.5671,4.5713359e-14,0.0000000
1385.5671,4.5612262e-14,0.0000000
1386.5672,4.5511173e-14,0.0000000
1387.5673,4.5410377e-14,0.0000000
1388.5674,4.5311845e-14,0.0000000
1389.5675,4.5212710e-14,0.0000000
1390.5676,4.5113866e-14,0.0000000
1391.5677,4.5016972e-14,0.0000000
1392.5678,4.4917584e-14,0.0000000
1393.5679,4.4821274e-14,0.0000000
1394.5680,4.4721852e-14,0.0000000
1395.5681,4.4625293e-14,0.0000000
1396.5682,4.4526095e-14,0.0000000
1397.5683,4.4428872e-14,0.0000000
1398.5684,4.4332461e-14,0.0000000
1399.5685,4.4234750e-14,0.0000000
1400.5686,4.4139356e-14,0.0000000
1401.5687,4.4043290e-14,0.0000000
1402.5688,4.3945864e-14,0.0000000
1403.5689,4.3853377e-14,0.0000000
1404.5690,4.3755828e-14,0.0000000
1405.5691,4.3660459e-14,0.0000000
1406.5692,4.3565783e-14,0.0000000
1407.5693,4.3472856e-14,0.0000000
1408.5694,4.3375936e-14,0.0000000
1409.5695,4.3282797e-14,0.0000000
1410.5696,4.3188447e-14,0.0000000
1411.5697,4.3092283e-14,0.0000000
1412.5698,4.2999743e-14,0.0000000
1413.5699,4.2907802e-14,0.0000000
1414.5700,4.2815057e-14,0.0000000
1415.5701,4.2721905e-14,0.0000000
1416.5702,4.2627307e-14,0.0000000
1417.5703,4.2536080e-14,0.0000000
1418.5704,4.2444866e-14,0.0000000
1419.5705,4.2349564e-14,0.0000000
1420.5706,4.2258275e-14,0.0000000
1421.5707,4.2168064e-14,0.0000000
1422.5708,4.2077766e-14,0.0000000
1423.5709,4.1986901e-14,0.0000000
1424.5711,4.1895580e-14,0.0000000
1425.5712,4.1806586e-14,0.0000000
1426.5713,4.1715159e-14,0.0000000
1427.5714,4.1623716e-14,0.0000000
1428.5715,4.1535369e-14,0.0000000
1429.5716,4.1445534e-14,0.0000000
1430.5717,4.1354608e-14,0.0000000
1431.5718,4.1264583e-14,0.0000000
1432.5719,4.1174760e-14,0.0000000
1433.5720,4.1089129e-14,0.0000000
1434.5722,4.1000166e-14,0.0000000
1435.5723,4.0909588e-14,0.0000000
1436.5724,4.0823721e-14,0.0000000
1437.5725,4.0734509e-14,0.0000000
1438.5726,4.0648614e-14,0.0000000
1439.5727,4.0557565e-14,0.0000000
1440.5728,4.0473780e-14,0.0000000
1441.5729,4.0383867e-14,0.0000000
1442.5731,4.0297901e-14,0.0000000
1443.5732,4.0212013e-14,0.0000000
1444.5733,4.0124473e-14,0.0000000
1445.5734,4.0038831e-14,0.0000000
1446.5735,3.9953683e-14,0.0000000
1447.5736,3.9867135e-14,0.0000000
1448.5738,3.9780824e-14,0.0000000
1449.5739,3.9694337e-14,0.0000000
1450.5740,3.9610026e-14,0.0000000
1451.5741,3.9527095e-14,0.0000000
1452.5742,3.9441879e-14,0.0000000
1453.5743,3.9356472e-14,0.0000000
1454.5745,3.9273421e-14,0.0000000
1455.5746,3.9190368e-14,0.0000000
1456.5747,3.9105542e-14,0.0000000
1457.5748,3.9020524e-14,0.0000000
1458.5749,3.8936242e-14,0.0000000
1459.5751,3.8852885e-14,0.0000000
1460.5752,3.8770115e-14,0.0000000
1461.5753,3.8687421e-14,0.0000000
1462.5754,3.8605396e-14,0.0000000
1463.5756,3.8522826e-14,0.0000000
1464.5757,3.8440134e-14,0.0000000
1465.5758,3.8357440e-14,0.0000000
1466.5759,3.8276106e-14,0.0000000
1467.5760,3.8194962e-14,0.0000000
1468.5762,3.8114013e-14,0.0000000
1469.5763,3.8032920e-14,0.0000000
1470.5764,3.7953533e-14,0.0000000
1471.5765,3.7872403e-14,0.0000000
1472.5767,3.7789688e-14,0.0000000
1473.5768,3.7710618e-14,0.0000000
1474.5769,3.7631358e-14,0.0000000
1475.5770,3.7549625e-14,0.0000000
1476.5772,3.7470551e-14,0.0000000
1477.5773,3.7389443e-14,0.0000000
1478.5774,3.7310866e-14,0.0000000
1479.5776,3.7233353e-14,0.0000000
1480.5777,3.7152019e-14,0.0000000
1481.5778,3.7075471e-14,0.0000000
1482.5779,3.6995781e-14,0.0000000
1483.5781,3.6917322e-14,0.0000000
1484.5782,3.6837831e-14,0.0000000
1485.5783,3.6761700e-14,0.0000000
1486.5785,3.6681070e-14,0.0000000
1487.5786,3.6606144e-14,0.0000000
1488.5787,3.6527847e-14,0.0000000
1489.5788,3.6450570e-14,0.0000000
1490.5790,3.6373867e-14,0.0000000
1491.5791,3.6296929e-14,0.0000000
1492.5792,3.6219363e-14,0.0000000
1493.5794,3.6143415e-14,0.0000000
1494.5795,3.6069333e-14,0.0000000
1495.5796,3.5990516e-14,0.0000000
1496.5798,3.5916609e-14,0.0000000
1497.5799,3.5839400e-14,0.0000000
1498.5800,3.5765280e-14,0.0000000
1499.5802,3.5687670e-14,0.0000000
1500.5803,3.5613333e-14,0.0000000
1501.5804,3.5539091e-14,0.0000000
1502.5806,3.5464257e-14,0.0000000
1503.5807,3.5389647e-14,0.0000000
1504.5809,3.5314915e-14,0.0000000
1505.5810,3.5240829e-14,0.0000000
1506.5811,3.5167326e-14,0.0000000
1507.5813,3.5093723e-14,0.0000000
1508.5814,3.5020212e-14,0.0000000
1509.5815,3.4946516e-14,0.0000000
1510.5817,3.4873652e-14,0.0000000
1511.5818,3.4799824e-14,0.0000000
1512.5819,3.4726628e-14,0.0000000
1513.5821,3.4652840e-14,0.0000000
1514.5822,3.4579314e-14,0.0000000
1515.5824,3.4507560e-14,0.0000000
1516.5825,3.4434906e-14,0.0000000
1517.5826,3.4363896e-14,0.0000000
1518.5828,3.4291528e-14,0.0000000
1519.5829,3.4220100e-14,0.0000000
1520.5831,3.4147160e-14,0.0000000
1521.5832,3.4075806e-14,0.0000000
1522.5833,3.4006322e-14,0.0000000
1523.5835,3.3936109e-14,0.0000000
1524.5836,3.3863771e-14,0.0000000
1525.5838,3.3791389e-14,0.0000000
1526.5839,3.3722070e-14,0.0000000
1527.5841,3.3653913e-14,0.0000000
1528.5842,3.3581756e-14,0.0000000
1529.5843,3.3509431e-14,0.0000000
1530.5845,3.3443568e-14,0.0000000
1531.5846,3.3371709e-14,0.0000000
1532.5848,3.3302203e-14,0.0000000
1533.5849,3.3233895e-14,0.0000000
1534.5851,3.3163953e-14,0.0000000
1535.5852,3.3096051e-14,0.0000000
1536.5854,3.3024905e-14,0.0000000
1537.5855,3.2958692e-14,0.0000000
1538.5856,3.2887768e-14,0.0000000
1539.5858,3.2820892e-14,0.0000000
1540.5859,3.2755196e-14,0.0000000
1541.5861,3.2683176e-14,0.0000000
1542.5862,3.2617332e-14,0.0000000
1543.5864,3.2551691e-14,0.0000000
1544.5865,3.2481418e-14,0.0000000
1545.5867,3.2413467e-14,0.0000000
1546.5868,3.2347936e-14,0.0000000
1547.5870,3.2282372e-14,0.0000000
1548.5871,3.2211584e-14,0.0000000
1549.5873,3.2146301e-14,0.0000000
1550.5874,3.2079169e-14,0.0000000
1551.5876,3.2013525e-14,0.0000000
1552.5877,3.1947853e-14,0.0000000
1553.5879,3.1881898e-14,0.0000000
1554.5880,3.1816251e-14,0.0000000
1555.5882,3.1750563e-14,0.0000000
1556.5883,3.1684885e-14,0.0000000
1557.5885,3.1619035e-14,0.0000000
1558.5886,3.1553963e-14,0.0000000
1559.5888,3.1489746e-14,0.0000000
1560.5889,3.1424511e-14,0.0000000
1561.5891,3.1360393e-14,0.0000000
1562.5892,3.1294587e-14,0.0000000
1563.5894,3.1230346e-14,0.0000000
1564.5895,3.1166133e-14,0.0000000
1565.5897,3.1102449e-14,0.0000000
1566.5898,3.1038092e-14,0.0000000
1567.5900,3.0973752e-14,0.0000000
1568.5901,3.0909339e-14,0.0000000
1569.5903,3.0844969e-14,0.0000000
1570.5904,3.0780982e-14,0.0000000
1571.5906,3.0722969e-14,0.0000000
1572.5908,3.0658795e-14,0.0000000
1573.5909,3.0594553e-14,0.0000000
1574.5911,3.0530744e-14,0.0000000
1575.5912,3.0470203e-14,0.0000000
1576.5914,3.0406840e-14,0.0000000
1577.5915,3.0343209e-14,0.0000000
1578.5917,3.0284003e-14,0.0000000
1579.5918,3.0220119e-14,0.0000000
1580.5920,3.0155589e-14,0.0000000
1581.5922,3.0098136e-14,0.0000000
1582.5923,3.0033670e-14,0.0000000
1583.5925,2.9974027e-14,0.0000000
1584.5926,2.9911673e-14,0.0000000
1585.5928,2.9851655e-14,0.0000000
1586.5930,2.9788779e-14,0.0000000
1587.5931,2.9729637e-14,0.0000000
1588.5933,2.9670304e-14,0.0000000
1589.5934,2.9607181e-14,0.0000000
1590.5936,2.9549727e-14,0.0000000
1591.5937,2.9486547e-14,0.0000000
1592.5939,2.9428239e-14,0.0000000
1593.5941,2.9368532e-14,0.0000000
1594.5942,2.9307587e-14,0.0000000
1595.5944,2.9247117e-14,0.0000000
1596.5945,2.9189239e-14,0.0000000
1597.5947,2.9126321e-14,0.0000000
1598.5949,2.9069460e-14,0.0000000
1599.5950,2.9010302e-14,0.0000000
1600.5952,2.8950377e-14,0.0000000
1601.5954,2.8892536e-14,0.0000000
1602.5955,2.8835171e-14,0.0000000
1603.5957,2.8773739e-14,0.0000000
1604.5958,2.8716495e-14,0.0000000
1605.5960,2.8658220e-14,0.0000000
1606.5962,2.8602154e-14,0.0000000
1607.5963,2.8541872e-14,0.0000000
1608.5965,2.8483719e-14,0.0000000
1609.5967,2.8427078e-14,0.0000000
1610.5968,2.8369967e-14,0.0000000
1611.5970,2.8311926e-14,0.0000000
1612.5971,2.8255906e-14,0.0000000
1613.5973,2.8199003e-14,0.0000000
1614.5975,2.8141198e-14,0.0000000
1615.5976,2.8082337e-14,0.0000000
1616.5978,2.8026385e-14,0.0000000
1617.5980,2.7969328e-14,0.0000000
1618.5981,2.7913607e-14,0.0000000
1619.5983,2.7858215e-14,0.0000000
1620.5985,2.7801734e-14,0.0000000
1621.5986,2.7745519e-14,0.0000000
1622.5988,2.7689282e-14,0.0000000
1623.5990,2.7633438e-14,0.0000000
1624.5991,2.7575439e-14,0.0000000
1625.5993,2.7522250e-14,0.0000000
1626.5995,2.7465953e-14,0.0000000
1627.5996,2.7410867e-14,0.0000000
1628.5998,2.7354465e-14,0.0000000
1629.6000,2.7298416e-14,0.0000000
1630.6001,2.7245782e-14,0.0000000
1631.6003,2.7190132e-14,0.0000000
1632.6005,2.7136236e-14,0.0000000
1633.6007,2.7084101e-14,0.0000000
1634.6008,2.7028187e-14,0.0000000
1635.6010,2.6973525e-14,0.0000000
1636.6012,2.6918416e-14,0.0000000
1637.6013,2.6867787e-14,0.0000000
1638.6015,2.6812666e-14,0.0000000
1639.6017,2.6757638e-14,0.0000000
1640.6018,2.6703555e-14,0.0000000
1641.6020,2.6651853e-14,0.0000000
1642.6022,2.6597246e-14,0.0000000
1643.6024,2.6542608e-14,0.0000000
1644.6025,2.6490681e-14,0.0000000
1645.6027,2.6437457e-14,0.0000000
1646.6029,2.6382831e-14,0.0000000
1647.6030,2.6332093e-14,0.0000000
1648.6032,2.6278512e-14,0.0000000
1649.6034,2.6226105e-14,0.0000000
1650.6036,2.6172962e-14,0.0000000
1651.6037,2.6121587e-14,0.0000000
1652.6039,2.6069858e-14,0.0000000
1653.6041,2.6017101e-14,0.0000000
1654.6043,2.5965304e-14,0.0000000
1655.6044,2.5913404e-14,0.0000000
1656.6046,2.5862715e-14,0.0000000
1657.6048,2.5811477e-14,0.0000000
1658.6049,2.5759103e-14,0.0000000
1659.6051,2.5706882e-14,0.0000000
1660.6053,2.5657989e-14,0.0000000
1661.6055,2.5604979e-14,0.0000000
1662.6056,2.5553839e-14,0.0000000
1663.6058,2.5504561e-14,0.0000000
1664.6060,2.5450746e-14,0.0000000
1665.6062,2.5402150e-14,0.0000000
1666.6064,2.5350972e-14,0.0000000
1667.6065,2.5302030e-14,0.0000000
1668.6067,2.5251538e-14,0.0000000
1669.6069,2.5199527e-14,0.0000000
1670.6071,2.5150963e-14,0.0000000
1671.6072,2.5100382e-14,0.0000000
1672.6074,2.5051563e-14,0.0000000
1673.6076,2.5000803e-14,0.0000000
1674.6078,2.4953515e-14,0.0000000
1675.6079,2.4900245e-14,0.0000000
1676.6081,2.4853433e-14,0.0000000
1677.6083,2.4801417e-14,0.0000000
1678.6085,2.4754073e-14,0.0000000
1679.6087,2.4706065e-14,0.0000000
1680.6088,2.4656601e-14,0.0000000
1681.6090,2.4609258e-14,0.0000000
1682.6092,2.4559492e-14,0.0000000
1683.6094,2.4511716e-14,0.0000000
1684.6095,2.4464340e-14,0.0000000
1685.6097,2.4414534e-14,0.0000000
1686.6099,2.4366680e-14,0.0000000
1687.6101,2.4319269e-14,0.0000000
1688.6103,2.4269427e-14,0.0000000
1689.6104,2.4221995e-14,0.0000000
1690.6106,2.4174686e-14,0.0000000
1691.6108,2.4127126e-14,0.0000000
1692.6110,2.4077463e-14,0.0000000
1693.6112,2.4029941e-14,0.0000000
1694.6114,2.3983347e-14,0.0000000
1695.6115,2.3936463e-14,0.0000000
1696.6117,2.3890039e-14,0.0000000
1697.6119,2.3841673e-14,0.0000000
1698.6121,2.3794145e-14,0.0000000
1699.6123,2.3746610e-14,0.0000000
1700.6124,2.3702912e-14,0.0000000
1701.6126,2.3656066e-14,0.0000000
1702.6128,2.3608500e-14,0.0000000
1703.6130,2.3561572e-14,0.0000000
1704.6132,2.3517955e-14,0.0000000
1705.6134,2.3470366e-14,0.0000000
1706.6135,2.3423441e-14,0.0000000
1707.6137,2.3379768e-14,0.0000000
1708.6139,2.3332157e-14,0.0000000
1709.6141,2.3285164e-14,0.0000000
1710.6143,2.3241465e-14,0.0000000
1711.6145,2.3194505e-14,0.0000000
1712.6146,2.3151198e-14,0.0000000
1713.6148,2.3104221e-14,0.0000000
1714.6150,2.3058296e-14,0.0000000
1715.6152,2.3014738e-14,0.0000000
1716.6154,2.2968440e-14,0.0000000
1717.6156,2.2924925e-14,0.0000000
1718.6158,2.2879662e-14,0.0000000
1719.6159,2.2833520e-14,0.0000000
1720.6161,2.2790888e-14,0.0000000
1721.6163,2.2744190e-14,0.0000000
1722.6165,2.2702083e-14,0.0000000
1723.6167,2.2655336e-14,0.0000000
1724.6169,2.2613147e-14,0.0000000
1725.6171,2.2566893e-14,0.0000000
1726.6172,2.2524752e-14,0.0000000
1727.6174,2.2478008e-14,0.0000000
1728.6176,2.2438244e-14,0.0000000
1729.6178,2.2391468e-14,0.0000000
1730.6180,2.2349713e-14,0.0000000
1731.6182,2.2304278e-14,0.0000000
1732.6184,2.2260734e-14,0.0000000
1733.6186,2.2219701e-14,0.0000000
1734.6187,2.2175219e-14,0.0000000
1735.6189,2.2132340e-14,0.0000000
1736.6191,2.2090119e-14,0.0000000
1737.6193,2.2044264e-14,0.0000000
1738.6195,2.2004095e-14,0.0000000
1739.6197,2.1961618e-14,0.0000000
1740.6199,2.1915563e-14,0.0000000
1741.6201,2.1876017e-14,0.0000000
1742.6203,2.1833712e-14,0.0000000
1743.6204,2.1791183e-14,0.0000000
1744.6206,2.1747392e-14,0.0000000
1745.6208,2.1705296e-14,0.0000000
1746.6210,2.1663920e-14,0.0000000
1747.6212,2.1623306e-14,0.0000000
1748.6214,2.1581403e-14,0.0000000
1749.6216,2.1540833e-14,0.0000000
1750.6218,2.1494975e-14,0.0000000
1751.6220,2.1453702e-14,0.0000000
1752.6222,2.1413111e-14,0.0000000
1753.6224,2.1371006e-14,0.0000000
1754.6225,2.1331239e-14,0.0000000
1755.6227,2.1289114e-14,0.0000000
1756.6229,2.1250579e-14,0.0000000
1757.6231,2.1208087e-14,0.0000000
1758.6233,2.1166285e-14,0.0000000
1759.6235,2.1124716e-14,0.0000000
1760.6237,2.1083396e-14,0.0000000
1761.6239,2.1044569e-14,0.0000000
1762.6241,2.1003151e-14,0.0000000
1763.6243,2.0964528e-14,0.0000000
1764.6245,2.0923056e-14,0.0000000
1765.6247,2.0884453e-14,0.0000000
1766.6249,2.0843032e-14,0.0000000
1767.6251,2.0804349e-14,0.0000000
1768.6252,2.0763128e-14,0.0000000
1769.6254,2.0724193e-14,0.0000000
1770.6256,2.0683113e-14,0.0000000
1771.6258,2.0644008e-14,0.0000000
1772.6260,2.0604702e-14,0.0000000
1773.6262,2.0564015e-14,0.0000000
1774.6264,2.0525138e-14,0.0000000
1775.6266,2.0484670e-14,0.0000000
1776.6268,2.0445895e-14,0.0000000
1777.6270,2.0405749e-14,0.0000000
1778.6272,2.0365695e-14,0.0000000
1779.6274,2.0326956e-14,0.0000000
1780.6276,2.0285373e-14,0.0000000
1781.6278,2.0246638e-14,0.0000000
1782.6280,2.0212464e-14,0.0000000
1783.6282,2.0171275e-14,0.0000000
1784.6284,2.0132101e-14,0.0000000
1785.6286,2.0093342e-14,0.0000000
1786.6288,2.0055209e-14,0.0000000
1787.6290,2.0018068e-14,0.0000000
1788.6291,1.9978713e-14,0.0000000
1789.6293,1.9939894e-14,0.0000000
1790.6295,1.9901760e-14,0.0000000
1791.6297,1.9865031e-14,0.0000000
1792.6299,1.9825644e-14,0.0000000
1793.6301,1.9787341e-14,0.0000000
1794.6303,1.9750309e-14,0.0000000
1795.6305,1.9713245e-14,0.0000000
1796.6307,1.9675071e-14,0.0000000
1797.6309,1.9639045e-14,0.0000000
1798.6311,1.9599738e-14,0.0000000
1799.6313,1.9562173e-14,0.0000000
1800.6315,1.9523974e-14,0.0000000
1801.6317,1.9489243e-14,0.0000000
1802.6319,1.9450001e-14,0.0000000
1803.6321,1.9412486e-14,0.0000000
1804.6323,1.9374425e-14,0.0000000
1805.6325,1.9340562e-14,0.0000000
1806.6327,1.9300741e-14,0.0000000
1807.6329,1.9262393e-14,0.0000000
1808.6331,1.9229011e-14,0.0000000
1809.6333,1.9191026e-14,0.0000000
1810.6335,1.9156644e-14,0.0000000
1811.6337,1.9119610e-14,0.0000000
1812.6339,1.9081588e-14,0.0000000
1813.6341,1.9048173e-14,0.0000000
1814.6343,1.9009320e-14,0.0000000
1815.6345,1.8975026e-14,0.0000000
1816.6347,1.8936138e-14,0.0000000
1817.6349,1.8901838e-14,0.0000000
1818.6351,1.8864511e-14,0.0000000
1819.6353,1.8827806e-14,0.0000000
1820.6355,1.8792754e-14,0.0000000
1821.6357,1.8757966e-14,0.0000000
1822.6359,1.8721281e-14,0.0000000
1823.6361,1.8684176e-14,0.0000000
1824.6363,1.8649859e-14,0.0000000
1825.6365,1.8616208e-14,0.0000000
1826.6367,1.8578643e-14,0.0000000
1827.6369,1.8544718e-14,0.0000000
1828.6371,1.8507329e-14,0.0000000
1829.6373,1.8473715e-14,0.0000000
1830.6375,1.8439154e-14,0.0000000
1831.6377,1.8403245e-14,0.0000000
1832.6379,1.8368666e-14,0.0000000
1833.6381,1.8332713e-14,0.0000000
1834.6383,1.8299233e-14,0.0000000
1835.6386,1.8265294e-14,0.0000000
1836.6388,1.8228117e-14,0.0000000
1837.6390,1.8194163e-14,0.0000000
1838.6392,1.8161588e-14,0.0000000
1839.6394,1.8123603e-14,0.0000000
1840.6396,1.8091198e-14,0.0000000
1841.6398,1.8058139e-14,0.0000000
1842.6400,1.8021870e-14,0.0000000
1843.6402,1.7988435e-14,0.0000000
1844.6404,1.7955343e-14,0.0000000
1845.6406,1.7918987e-14,0.0000000
1846.6408,1.7885965e-14,0.0000000
1847.6410,1.7853939e-14,0.0000000
1848.6412,1.7815988e-14,0.0000000
1849.6414,1.7784746e-14,0.0000000
1850.6416,1.7752875e-14,0.0000000
1851.6418,1.7715890e-14,0.0000000
1852.6420,1.7682966e-14,0.0000000
1853.6422,1.7650783e-14,0.0000000
1854.6424,1.7616747e-14,0.0000000
1855.6426,1.7583271e-14,0.0000000
1856.6428,1.7549872e-14,0.0000000
1857.6431,1.7517260e-14,0.0000000
1858.6433,1.7485397e-14,0.0000000
1859.6435,1.7451657e-14,0.0000000
1860.6437,1.7416466e-14,0.0000000
1861.6439,1.7384149e-14,0.0000000
1862.6441,1.7351368e-14,0.0000000
1863.6443,1.7319826e-14,0.0000000
1864.6445,1.7288175e-14,0.0000000
1865.6447,1.7254751e-14,0.0000000
1866.6449,1.7221553e-14,0.0000000
1867.6451,1.7188655e-14,0.0000000
1868.6453,1.7155552e-14,0.0000000
1869.6455,1.7123335e-14,0.0000000
1870.6457,1.7092118e-14,0.0000000
1871.6460,1.7059299e-14,0.0000000
1872.6462,1.7027216e-14,0.0000000
1873.6464,1.6995417e-14,0.0000000
1874.6466,1.6961394e-14,0.0000000
1875.6468,1.6930864e-14,0.0000000
1876.6470,1.6898759e-14,0.0000000
1877.6472,1.6865158e-14,0.0000000
1878.6474,1.6831159e-14,0.0000000
1879.6476,1.6802901e-14,0.0000000
1880.6478,1.6769621e-14,0.0000000
1881.6480,1.6740696e-14,0.0000000
1882.6482,1.6706632e-14,0.0000000
1883.6485,1.6673070e-14,0.0000000
1884.6487,1.6644608e-14,0.0000000
1885.6489,1.6611829e-14,0.0000000
1886.6491,1.6582688e-14,0.0000000
1887.6493,1.6549774e-14,0.0000000
1888.6495,1.6516338e-14,0.0000000
1889.6497,1.6488538e-14,0.0000000
1890.6499,1.6455907e-14,0.0000000
1891.6501,1.6423517e-14,0.0000000
1892.6503,1.6394051e-14,0.0000000
1893.6506,1.6360343e-14,0.0000000
1894.6508,1.6333266e-14,0.0000000
1895.6510,1.6299827e-14,0.0000000
1896.6512,1.6271959e-14,0.0000000
1897.6514,1.6239292e-14,0.0000000
1898.6516,1.6211104e-14,0.0000000
1899.6518,1.6177825e-14,0.0000000
1900.6520,1.6149972e-14,0.0000000
1901.6522,1.6116646e-14,0.0000000
1902.6525,1.6086563e-14,0.0000000
1903.6527,1.6056423e-14,0.0000000
1904.6529,1.6025573e-14,0.0000000
1905.6531,1.5994706e-14,0.0000000
1906.6533,1.5966465e-14,0.0000000
1907.6535,1.5934474e-14,0.0000000
1908.6537,1.5906062e-14,0.0000000
1909.6539,1.5876683e-14,0.0000000
1910.6541,1.5846030e-14,0.0000000
1911.6544,1.5815621e-14,0.0000000
1912.6546,1.5785329e-14,0.0000000
1913.6548,1.5756764e-14,0.0000000
1914.6550,1.5727689e-14,0.0000000
1915.6552,1.5695954e-14,0.0000000
1916.6554,1.5666655e-14,0.0000000
1917.6556,1.5636332e-14,0.0000000
1918.6558,1.5607302e-14,0.0000000
1919.6561,1.5578826e-14,0.0000000
1920.6563,1.5548732e-14,0.0000000
1921.6565,1.5518596e-14,0.0000000
1922.6567,1.5490215e-14,0.0000000
1923.6569,1.5461007e-14,0.0000000
1924.6571,1.5431125e-14,0.0000000
1925.6573,1.5403114e-14,0.0000000
1926.6576,1.5373212e-14,0.0000000
1927.6578,1.5343881e-14,0.0000000
1928.6580,1.5314947e-14,0.0000000
1929.6582,1.5287321e-14,0.0000000
1930.6584,1.5258029e-14,0.0000000
1931.6586,1.5227882e-14,0.0000000
1932.6588,1.5199285e-14,0.0000000
1933.6591,1.5171539e-14,0.0000000
1934.6593,1.5142198e-14,0.0000000
1935.6595,1.5112440e-14,0.0000000
1936.6597,1.5085211e-14,0.0000000
