wave,flux,fluxerr
135.05642,1.7381200e-14,0.0000000
135.15643,1.7343969e-14,0.0000000
135.25644,1.7306707e-14,0.0000000
135.35644,1.7269493e-14,0.0000000
135.45645,1.7232146e-14,0.0000000
135.55646,1.7194775e-14,0.0000000
135.65647,1.7159113e-14,0.0000000
135.75648,1.7122155e-14,0.0000000
135.85648,1.7084706e-14,0.0000000
135.95649,1.7052131e-14,0.0000000
136.05650,1.7021779e-14,0.0000000
136.15651,1.6984416e-14,0.0000000
136.25652,1.6945553e-14,0.0000000
136.35652,1.6910473e-14,0.0000000
136.45653,1.6875180e-14,0.0000000
136.55654,1.6838829e-14,0.0000000
136.65655,1.6803749e-14,0.0000000
136.75656,1.6768609e-14,0.0000000
136.85657,1.6733461e-14,0.0000000
136.95657,1.6698197e-14,0.0000000
137.05658,1.6662948e-14,0.0000000
137.15659,1.6627627e-14,0.0000000
137.25660,1.6593503e-14,0.0000000
137.35661,1.6558263e-14,0.0000000
137.45662,1.6523284e-14,0.0000000
137.55663,1.6488792e-14,0.0000000
137.65663,1.6453606e-14,0.0000000
137.75664,1.6419569e-14,0.0000000
137.85665,1.6384961e-14,0.0000000
137.95666,1.6350182e-14,0.0000000
138.05667,1.6315821e-14,0.0000000
138.15668,1.6281697e-14,0.0000000
138.25669,1.6247473e-14,0.0000000
138.35670,1.6212888e-14,0.0000000
138.45671,1.6178830e-14,0.0000000
138.55671,1.6145247e-14,0.0000000
138.65672,1.6110552e-14,0.0000000
138.75673,1.6077055e-14,0.0000000
138.85674,1.6043482e-14,0.0000000
138.95675,1.6009318e-14,0.0000000
139.05676,1.5976498e-14,0.0000000
139.15677,1.5942266e-14,0.0000000
139.25678,1.5909291e-14,0.0000000
139.35679,1.5874997e-14,0.0000000
139.45680,1.5842113e-14,0.0000000
139.55681,1.5809148e-14,0.0000000
139.65682,1.5776111e-14,0.0000000
139.75683,1.5742263e-14,0.0000000
139.85684,1.5708598e-14,0.0000000
139.95685,1.5675768e-14,0.0000000
140.05686,1.5642746e-14,0.0000000
140.15687,1.5610152e-14,0.0000000
140.25688,1.5577747e-14,0.0000000
140.35689,1.5544605e-14,0.0000000
140.45690,1.5511680e-14,0.0000000
140.55691,1.5479717e-14,0.0000000
140.65692,1.5446383e-14,0.0000000
140.75693,1.5414649e-14,0.0000000
140.85694,1.5381618e-14,0.0000000
140.95695,1.5349471e-14,0.0000000
141.05696,1.5317638e-14,0.0000000
141.15697,1.5285811e-14,0.0000000
141.25698,1.5252686e-14,0.0000000
141.35699,1.5220722e-14,0.0000000
141.45700,1.5188741e-14,0.0000000
141.55701,1.5156772e-14,0.0000000
141.65702,1.5125725e-14,0.0000000
141.75703,1.5093293e-14,0.0000000
141.85704,1.5061913e-14,0.0000000
141.95705,1.5030629e-14,0.0000000
142.05706,1.4999307e-14,0.0000000
142.15707,1.4966683e-14,0.0000000
142.25708,1.4935195e-14,0.0000000
142.35709,1.4905000e-14,0.0000000
142.45711,1.4873597e-14,0.0000000
142.55712,1.4842052e-14,0.0000000
142.65713,1.4810601e-14,0.0000000
142.75714,1.4779324e-14,0.0000000
142.85715,1.4749017e-14,0.0000000
142.95716,1.4717696e-14,0.0000000
143.05717,1.4687360e-14,0.0000000
143.15718,1.4655916e-14,0.0000000
143.25719,1.4625590e-14,0.0000000
143.35720,1.4594237e-14,0.0000000
143.45722,1.4564048e-14,0.0000000
143.55723,1.4533594e-14,0.0000000
143.65724,1.4503125e-14,0.0000000
143.75725,1.4472163e-14,0.0000000
143.85726,1.4442480e-14,0.0000000
143.95727,1.4411498e-14,0.0000000
144.05728,1.4381703e-14,0.0000000
144.15729,1.4351876e-14,0.0000000
144.25731,1.4321727e-14,0.0000000
144.35732,1.4291513e-14,0.0000000
144.45733,1.4261498e-14,0.0000000
144.55734,1.4231620e-14,0.0000000
144.65735,1.4202001e-14,0.0000000
144.75736,1.4172079e-14,0.0000000
144.85738,1.4142495e-14,0.0000000
144.95739,1.4112502e-14,0.0000000
145.05740,1.4083023e-14,0.0000000
145.15741,1.4053355e-14,0.0000000
145.25742,1.4023961e-14,0.0000000
145.35743,1.3995108e-14,0.0000000
145.45745,1.3965549e-14,0.0000000
145.55746,1.3936234e-14,0.0000000
145.65747,1.3907071e-14,0.0000000
145.75748,1.3878492e-14,0.0000000
145.85749,1.3848874e-14,0.0000000
145.95751,1.3820165e-14,0.0000000
146.05752,1.3790800e-14,0.0000000
146.15753,1.3762002e-14,0.0000000
146.25754,1.3733572e-14,0.0000000
146.35756,1.3704955e-14,0.0000000
146.45757,1.3675956e-14,0.0000000
146.55758,1.3648009e-14,0.0000000
146.65759,1.3619416e-14,0.0000000
146.75760,1.3590506e-14,0.0000000
146.85762,1.3562509e-14,0.0000000
146.95763,1.3534020e-14,0.0000000
147.05764,1.3505335e-14,0.0000000
147.15765,1.3476788e-14,0.0000000
147.25767,1.3449504e-14,0.0000000
147.35768,1.3420932e-14,0.0000000
147.45769,1.3393601e-14,0.0000000
147.55770,1.3365671e-14,0.0000000
147.65772,1.3337573e-14,0.0000000
147.75773,1.3309460e-14,0.0000000
147.85774,1.3281197e-14,0.0000000
147.95776,1.3254354e-14,0.0000000
148.05777,1.3226341e-14,0.0000000
148.15778,1.3198776e-14,0.0000000
148.25779,1.3171383e-14,0.0000000
148.35781,1.3143117e-14,0.0000000
148.45782,1.3116321e-14,0.0000000
148.55783,1.3089370e-14,0.0000000
148.65785,1.3061833e-14,0.0000000
148.75786,1.3034163e-14,0.0000000
148.85787,1.3007738e-14,0.0000000
148.95788,1.2980255e-14,0.0000000
149.05790,1.2953454e-14,0.0000000
149.15791,1.2926224e-14,0.0000000
149.25792,1.2899761e-14,0.0000000
149.35794,1.2872096e-14,0.0000000
149.45795,1.2845892e-14,0.0000000
149.55796,1.2819443e-14,0.0000000
149.65798,1.2791645e-14,0.0000000
149.75799,1.2765345e-14,0.0000000
149.85800,1.2739025e-14,0.0000000
149.95802,1.2712698e-14,0.0000000
150.05803,1.2686356e-14,0.0000000
150.15804,1.2659962e-14,0.0000000
150.25806,1.2633572e-14,0.0000000
150.35807,1.2607180e-14,0.0000000
150.45809,1.2580724e-14,0.0000000
150.55810,1.2554290e-14,0.0000000
150.65811,1.2528426e-14,0.0000000
150.75813,1.2502999e-14,0.0000000
150.85814,1.2476506e-14,0.0000000
150.95815,1.2450073e-14,0.0000000
151.05817,1.2425121e-14,0.0000000
151.15818,1.2398645e-14,0.0000000
151.25819,1.2373678e-14,0.0000000
151.35821,1.2347083e-14,0.0000000
151.45822,1.2322151e-14,0.0000000
151.55824,1.2296833e-14,0.0000000
151.65825,1.2270548e-14,0.0000000
151.75826,1.2245572e-14,0.0000000
151.85828,1.2220554e-14,0.0000000
151.95829,1.2194238e-14,0.0000000
152.05831,1.2169037e-14,0.0000000
152.15832,1.2143871e-14,0.0000000
152.25833,1.2119433e-14,0.0000000
152.35835,1.2093325e-14,0.0000000
152.45836,1.2068907e-14,0.0000000
152.55838,1.2044340e-14,0.0000000
152.65839,1.2018408e-14,0.0000000
152.75841,1.1993761e-14,0.0000000
152.85842,1.1969244e-14,0.0000000
152.95843,1.1944602e-14,0.0000000
153.05845,1.1920091e-14,0.0000000
153.15846,1.1895572e-14,0.0000000
153.25848,1.1870079e-14,0.0000000
153.35849,1.1845777e-14,0.0000000
153.45851,1.1821466e-14,0.0000000
153.55852,1.1797157e-14,0.0000000
153.65854,1.1772521e-14,0.0000000
153.75855,1.1747890e-14,0.0000000
153.85856,1.1723227e-14,0.0000000
153.95858,1.1699826e-14,0.0000000
154.05859,1.1675449e-14,0.0000000
154.15861,1.1651054e-14,0.0000000
154.25862,1.1626623e-14,0.0000000
154.35864,1.1602955e-14,0.0000000
154.45865,1.1579362e-14,0.0000000
154.55867,1.1555043e-14,0.0000000
154.65868,1.1532009e-14,0.0000000
154.75870,1.1507669e-14,0.0000000
154.85871,1.1483983e-14,0.0000000
154.95873,1.1460383e-14,0.0000000
155.05874,1.1436073e-14,0.0000000
155.15876,1.1412952e-14,0.0000000
155.25877,1.1389682e-14,0.0000000
155.35879,1.1365551e-14,0.0000000
155.45880,1.1342599e-14,0.0000000
155.55882,1.1318448e-14,0.0000000
155.65883,1.1295108e-14,0.0000000
155.75885,1.1272172e-14,0.0000000
155.85886,1.1248927e-14,0.0000000
155.95888,1.1226217e-14,0.0000000
156.05889,1.1202791e-14,0.0000000
156.15891,1.1179236e-14,0.0000000
156.25892,1.1156516e-14,0.0000000
156.35894,1.1133648e-14,0.0000000
156.45895,1.1111170e-14,0.0000000
156.55897,1.1088354e-14,0.0000000
156.65898,1.1064400e-14,0.0000000
156.75900,1.1041890e-14,0.0000000
156.85901,1.1019214e-14,0.0000000
156.95903,1.0996679e-14,0.0000000
157.05904,1.0974071e-14,0.0000000
157.15906,1.0951504e-14,0.0000000
157.25908,1.0928901e-14,0.0000000
157.35909,1.0906304e-14,0.0000000
157.45911,1.0883669e-14,0.0000000
157.55912,1.0862235e-14,0.0000000
157.65914,1.0840001e-14,0.0000000
157.75915,1.0817330e-14,0.0000000
157.85917,1.0794648e-14,0.0000000
157.95918,1.0773338e-14,0.0000000
158.05920,1.0750897e-14,0.0000000
158.15922,1.0728222e-14,0.0000000
158.25923,1.0707059e-14,0.0000000
158.35925,1.0684419e-14,0.0000000
158.45926,1.0663319e-14,0.0000000
158.55928,1.0640523e-14,0.0000000
158.65930,1.0619495e-14,0.0000000
158.75931,1.0596705e-14,0.0000000
158.85933,1.0575614e-14,0.0000000
158.95934,1.0554452e-14,0.0000000
159.05936,1.0531612e-14,0.0000000
159.15937,1.0510527e-14,0.0000000
159.25939,1.0489307e-14,0.0000000
159.35941,1.0468168e-14,0.0000000
159.45942,1.0446144e-14,0.0000000
159.55944,1.0424129e-14,0.0000000
159.65945,1.0403427e-14,0.0000000
159.75947,1.0382635e-14,0.0000000
159.85949,1.0360330e-14,0.0000000
159.95950,1.0339546e-14,0.0000000
160.05952,1.0318818e-14,0.0000000
160.15954,1.0297756e-14,0.0000000
160.25955,1.0275699e-14,0.0000000
160.35957,1.0254835e-14,0.0000000
160.45958,1.0234100e-14,0.0000000
160.55960,1.0213335e-14,0.0000000
160.65962,1.0192467e-14,0.0000000
160.75963,1.0171696e-14,0.0000000
160.85965,1.0150931e-14,0.0000000
160.95967,1.0130125e-14,0.0000000
161.05968,1.0109203e-14,0.0000000
161.15970,1.0088373e-14,0.0000000
161.25971,1.0067561e-14,0.0000000
161.35973,1.0047079e-14,0.0000000
161.45975,1.0027507e-14,0.0000000
161.55976,1.0006656e-14,0.0000000
161.65978,9.9857870e-15,0.0000000
161.75980,9.9654747e-15,0.0000000
161.85981,9.9456431e-15,0.0000000
161.95983,9.9247457e-15,0.0000000
162.05985,9.9051102e-15,0.0000000
162.15986,9.8846063e-15,0.0000000
162.25988,9.8645352e-15,0.0000000
162.35990,9.8443724e-15,0.0000000
162.45991,9.8244108e-15,0.0000000
162.55993,9.8041329e-15,0.0000000
162.65995,9.7843168e-15,0.0000000
162.75996,9.7639216e-15,0.0000000
162.85998,9.7445323e-15,0.0000000
162.96000,9.7248995e-15,0.0000000
163.06001,9.7043122e-15,0.0000000
163.16003,9.6849077e-15,0.0000000
163.26005,9.6653247e-15,0.0000000
163.36007,9.6459253e-15,0.0000000
163.46008,9.6255084e-15,0.0000000
163.56010,9.6065614e-15,0.0000000
163.66012,9.5860480e-15,0.0000000
163.76013,9.5671870e-15,0.0000000
163.86015,9.5478918e-15,0.0000000
163.96017,9.5276016e-15,0.0000000
164.06018,9.5087758e-15,0.0000000
164.16020,9.4897390e-15,0.0000000
164.26022,9.4703967e-15,0.0000000
164.36024,9.4513482e-15,0.0000000
164.46025,9.4313886e-15,0.0000000
164.56027,9.4123684e-15,0.0000000
164.66029,9.3933585e-15,0.0000000
164.76030,9.3743428e-15,0.0000000
164.86032,9.3554151e-15,0.0000000
164.96034,9.3364163e-15,0.0000000
165.06036,9.3174037e-15,0.0000000
165.16037,9.2984260e-15,0.0000000
165.26039,9.2794196e-15,0.0000000
165.36041,9.2605840e-15,0.0000000
165.46043,9.2415599e-15,0.0000000
165.56044,9.2231590e-15,0.0000000
165.66046,9.2041263e-15,0.0000000
165.76048,9.1859235e-15,0.0000000
165.86049,9.1669067e-15,0.0000000
165.96051,9.1485009e-15,0.0000000
166.06053,9.1294347e-15,0.0000000
166.16055,9.1113967e-15,0.0000000
166.26056,9.0929023e-15,0.0000000
166.36058,9.0737988e-15,0.0000000
166.46060,9.0558646e-15,0.0000000
166.56062,9.0372383e-15,0.0000000
166.66064,9.0193146e-15,0.0000000
166.76065,9.0007399e-15,0.0000000
166.86067,8.9828634e-15,0.0000000
166.96069,8.9640845e-15,0.0000000
167.06071,8.9462297e-15,0.0000000
167.16072,8.9287086e-15,0.0000000
167.26074,8.9100925e-15,0.0000000
167.36076,8.8921147e-15,0.0000000
167.46078,8.8738482e-15,0.0000000
167.56079,8.8561454e-15,0.0000000
167.66081,8.8380867e-15,0.0000000
167.76083,8.8202368e-15,0.0000000
167.86085,8.8023793e-15,0.0000000
167.96087,8.7842486e-15,0.0000000
168.06088,8.7665499e-15,0.0000000
168.16090,8.7494298e-15,0.0000000
168.26092,8.7311326e-15,0.0000000
168.36094,8.7135455e-15,0.0000000
168.46095,8.6962829e-15,0.0000000
168.56097,8.6782145e-15,0.0000000
168.66099,8.6608693e-15,0.0000000
168.76101,8.6431834e-15,0.0000000
168.86103,8.6257127e-15,0.0000000
168.96104,8.6084998e-15,0.0000000
169.06106,8.5909758e-15,0.0000000
169.16108,8.5739273e-15,0.0000000
169.26110,8.5567179e-15,0.0000000
169.36112,8.5394794e-15,0.0000000
169.46114,8.5221455e-15,0.0000000
169.56115,8.5040359e-15,0.0000000
169.66117,8.4876182e-15,0.0000000
169.76119,8.4703418e-15,0.0000000
169.86121,8.4530843e-15,0.0000000
169.96123,8.4358192e-15,0.0000000
170.06124,8.4184826e-15,0.0000000
170.16126,8.4015056e-15,0.0000000
170.26128,8.3843270e-15,0.0000000
170.36130,8.3683278e-15,0.0000000
170.46132,8.3509335e-15,0.0000000
170.56134,8.3337832e-15,0.0000000
170.66135,8.3173097e-15,0.0000000
170.76137,8.3007224e-15,0.0000000
170.86139,8.2834405e-15,0.0000000
170.96141,8.2674400e-15,0.0000000
171.06143,8.2504783e-15,0.0000000
171.16145,8.2334974e-15,0.0000000
171.26146,8.2175083e-15,0.0000000
171.36148,8.2002478e-15,0.0000000
171.46150,8.1847312e-15,0.0000000
171.56152,8.1677795e-15,0.0000000
171.66154,8.1506855e-15,0.0000000
171.76156,8.1351011e-15,0.0000000
171.86158,8.1183752e-15,0.0000000
171.96159,8.1016257e-15,0.0000000
172.06161,8.0860565e-15,0.0000000
172.16163,8.0690686e-15,0.0000000
172.26165,8.0537134e-15,0.0000000
172.36167,8.0367036e-15,0.0000000
172.46169,8.0213333e-15,0.0000000
172.56171,8.0043250e-15,0.0000000
172.66172,7.9889450e-15,0.0000000
172.76174,7.9719938e-15,0.0000000
172.86176,7.9566604e-15,0.0000000
172.96178,7.9409865e-15,0.0000000
173.06180,7.9242213e-15,0.0000000
173.16182,7.9088479e-15,0.0000000
173.26184,7.8934320e-15,0.0000000
173.36186,7.8765037e-15,0.0000000
173.46187,7.8610795e-15,0.0000000
173.56189,7.8456863e-15,0.0000000
173.66191,7.8302497e-15,0.0000000
173.76193,7.8132942e-15,0.0000000
173.86195,7.7978822e-15,0.0000000
173.96197,7.7824951e-15,0.0000000
174.06199,7.7671083e-15,0.0000000
174.16201,7.7516814e-15,0.0000000
174.26203,7.7363330e-15,0.0000000
174.36204,7.7206268e-15,0.0000000
174.46206,7.7051634e-15,0.0000000
174.56208,7.6897644e-15,0.0000000
174.66210,7.6744100e-15,0.0000000
174.76212,7.6589340e-15,0.0000000
174.86214,7.6435584e-15,0.0000000
174.96216,7.6280933e-15,0.0000000
175.06218,7.6130451e-15,0.0000000
175.16220,7.5975591e-15,0.0000000
175.26222,7.5821740e-15,0.0000000
175.36224,7.5668048e-15,0.0000000
175.46225,7.5513060e-15,0.0000000
175.56227,7.5360143e-15,0.0000000
175.66229,7.5209121e-15,0.0000000
175.76231,7.5057880e-15,0.0000000
175.86233,7.4906281e-15,0.0000000
175.96235,7.4755765e-15,0.0000000
176.06237,7.4617509e-15,0.0000000
176.16239,7.4466314e-15,0.0000000
176.26241,7.4318765e-15,0.0000000
176.36243,7.4166913e-15,0.0000000
176.46245,7.4016105e-15,0.0000000
176.56247,7.3865301e-15,0.0000000
176.66249,7.3715315e-15,0.0000000
176.76251,7.3575449e-15,0.0000000
176.86252,7.3427819e-15,0.0000000
176.96254,7.3276717e-15,0.0000000
177.06256,7.3127369e-15,0.0000000
177.16258,7.2986371e-15,0.0000000
177.26260,7.2838683e-15,0.0000000
177.36262,7.2693720e-15,0.0000000
177.46264,7.2550061e-15,0.0000000
177.56266,7.2399944e-15,0.0000000
177.66268,7.2261747e-15,0.0000000
177.76270,7.2113713e-15,0.0000000
177.86272,7.1966484e-15,0.0000000
177.96274,7.1827284e-15,0.0000000
178.06276,7.1675725e-15,0.0000000
178.16278,7.1539203e-15,0.0000000
178.26280,7.1393639e-15,0.0000000
178.36282,7.1250618e-15,0.0000000
178.46284,7.1113729e-15,0.0000000
178.56286,7.0965492e-15,0.0000000
178.66288,7.0827681e-15,0.0000000
178.76290,7.0681929e-15,0.0000000
178.86291,7.0540484e-15,0.0000000
178.96293,7.0401222e-15,0.0000000
179.06295,7.0256897e-15,0.0000000
179.16297,7.0118293e-15,0.0000000
179.26299,6.9982787e-15,0.0000000
179.36301,6.9834183e-15,0.0000000
179.46303,6.9696762e-15,0.0000000
179.56305,6.9560546e-15,0.0000000
179.66307,6.9424552e-15,0.0000000
179.76309,6.9286053e-15,0.0000000
179.86311,6.9141352e-15,0.0000000
179.96313,6.9006844e-15,0.0000000
180.06315,6.8861373e-15,0.0000000
180.16317,6.8727328e-15,0.0000000
180.26319,6.8593022e-15,0.0000000
180.36321,6.8447115e-15,0.0000000
180.46323,6.8313914e-15,0.0000000
180.56325,6.8179105e-15,0.0000000
180.66327,6.8046020e-15,0.0000000
180.76329,6.7910872e-15,0.0000000
180.86331,6.7766275e-15,0.0000000
180.96333,6.7632870e-15,0.0000000
181.06335,6.7499218e-15,0.0000000
181.16337,6.7365798e-15,0.0000000
181.26339,6.7233033e-15,0.0000000
181.36341,6.7100644e-15,0.0000000
181.46343,6.6962770e-15,0.0000000
181.56345,6.6825052e-15,0.0000000
181.66347,6.6690440e-15,0.0000000
181.76349,6.6555046e-15,0.0000000
181.86351,6.6421149e-15,0.0000000
181.96353,6.6289890e-15,0.0000000
182.06355,6.6154287e-15,0.0000000
182.16357,6.6022815e-15,0.0000000
182.26359,6.5892490e-15,0.0000000
182.36361,6.5757988e-15,0.0000000
182.46363,6.5633336e-15,0.0000000
182.56365,6.5497058e-15,0.0000000
182.66367,6.5371062e-15,0.0000000
182.76369,6.5235638e-15,0.0000000
182.86371,6.5105061e-15,0.0000000
182.96373,6.4972511e-15,0.0000000
183.06375,6.4838868e-15,0.0000000
183.16377,6.4714652e-15,0.0000000
183.26379,6.4588462e-15,0.0000000
183.36381,6.4454168e-15,0.0000000
183.46383,6.4321427e-15,0.0000000
183.56386,6.4194871e-15,0.0000000
183.66388,6.4070526e-15,0.0000000
183.76390,6.3937435e-15,0.0000000
183.86392,6.3812343e-15,0.0000000
183.96394,6.3686482e-15,0.0000000
184.06396,6.3552620e-15,0.0000000
184.16398,6.3421808e-15,0.0000000
184.26400,6.3293836e-15,0.0000000
184.36402,6.3173983e-15,0.0000000
184.46404,6.3046208e-15,0.0000000
184.56406,6.2915637e-15,0.0000000
184.66408,6.2785536e-15,0.0000000
184.76410,6.2660401e-15,0.0000000
184.86412,6.2540041e-15,0.0000000
184.96414,6.2409878e-15,0.0000000
185.06416,6.2283938e-15,0.0000000
185.16418,6.2163830e-15,0.0000000
185.26420,6.2033856e-15,0.0000000
185.36422,6.1906210e-15,0.0000000
185.46424,6.1785894e-15,0.0000000
185.56426,6.1658092e-15,0.0000000
185.66428,6.1540357e-15,0.0000000
185.76431,6.1411744e-15,0.0000000
185.86433,6.1287688e-15,0.0000000
185.96435,6.1167285e-15,0.0000000
186.06437,6.1044396e-15,0.0000000
186.16439,6.0919002e-15,0.0000000
186.26441,6.0790286e-15,0.0000000
186.36443,6.0674057e-15,0.0000000
186.46445,6.0547471e-15,0.0000000
186.56447,6.0426597e-15,0.0000000
186.66449,6.0304660e-15,0.0000000
186.76451,6.0185130e-15,0.0000000
186.86453,6.0061813e-15,0.0000000
186.96455,5.9941868e-15,0.0000000
187.06457,5.9819621e-15,0.0000000
187.16460,5.9699506e-15,0.0000000
187.26462,5.9580414e-15,0.0000000
187.36464,5.9457000e-15,0.0000000
187.46466,5.9336885e-15,0.0000000
187.56468,5.9217519e-15,0.0000000
187.66470,5.9096572e-15,0.0000000
187.76472,5.8975827e-15,0.0000000
187.86474,5.8854344e-15,0.0000000
187.96476,5.8737372e-15,0.0000000
188.06478,5.8621052e-15,0.0000000
188.16480,5.8503668e-15,0.0000000
188.26482,5.8382900e-15,0.0000000
188.36485,5.8262184e-15,0.0000000
188.46487,5.8143754e-15,0.0000000
188.56489,5.8022915e-15,0.0000000
188.66491,5.7903553e-15,0.0000000
188.76493,5.7789062e-15,0.0000000
188.86495,5.7675230e-15,0.0000000
188.96497,5.7558409e-15,0.0000000
189.06499,5.7439235e-15,0.0000000
189.16501,5.7319663e-15,0.0000000
189.26503,5.7202066e-15,0.0000000
189.36506,5.7083418e-15,0.0000000
189.46508,5.6969178e-15,0.0000000
189.56510,5.6855669e-15,0.0000000
189.66512,5.6738982e-15,0.0000000
189.76514,5.6621519e-15,0.0000000
189.86516,5.6503331e-15,0.0000000
189.96518,5.6396026e-15,0.0000000
190.06520,5.6276973e-15,0.0000000
190.16522,5.6159740e-15,0.0000000
190.26525,5.6050433e-15,0.0000000
190.36527,5.5933234e-15,0.0000000
190.46529,5.5815478e-15,0.0000000
190.56531,5.5710373e-15,0.0000000
190.66533,5.5590422e-15,0.0000000
190.76535,5.5473423e-15,0.0000000
190.86537,5.5366908e-15,0.0000000
190.96539,5.5247502e-15,0.0000000
191.06541,5.5132400e-15,0.0000000
191.16544,5.5023259e-15,0.0000000
191.26546,5.4907296e-15,0.0000000
191.36548,5.4800070e-15,0.0000000
191.46550,5.4683261e-15,0.0000000
191.56552,5.4575589e-15,0.0000000
191.66554,5.4458012e-15,0.0000000
191.76556,5.4351929e-15,0.0000000
191.86558,5.4234128e-15,0.0000000
191.96561,5.4128433e-15,0.0000000
192.06563,5.4010077e-15,0.0000000
192.16565,5.3903443e-15,0.0000000
192.26567,5.3790691e-15,0.0000000
192.36569,5.3679531e-15,0.0000000
192.46571,5.3575332e-15,0.0000000
192.56573,5.3455308e-15,0.0000000
192.66576,5.3351273e-15,0.0000000
192.76578,5.3240023e-15,0.0000000
192.86580,5.3127055e-15,0.0000000
192.96582,5.3022924e-15,0.0000000
193.06584,5.2914175e-15,0.0000000
193.16586,5.2800023e-15,0.0000000
193.26588,5.2697896e-15,0.0000000
193.36591,5.2579718e-15,0.0000000
193.46593,5.2477516e-15,0.0000000
193.56595,5.2360165e-15,0.0000000
193.66597,5.2255668e-15,0.0000000
