wave,flux,fluxerr
135.05642,9.3011153e-14,0.0000000
135.15643,9.2791054e-14,0.0000000
135.25644,9.2572804e-14,0.0000000
135.35644,9.2350737e-14,0.0000000
135.45645,9.2135717e-14,0.0000000
135.55646,9.1921983e-14,0.0000000
135.65647,9.1699567e-14,0.0000000
135.75648,9.1485155e-14,0.0000000
135.85648,9.1271104e-14,0.0000000
135.95649,9.1055097e-14,0.0000000
136.05650,9.0836671e-14,0.0000000
136.15651,9.0621412e-14,0.0000000
136.25652,9.0408885e-14,0.0000000
136.35652,9.0199127e-14,0.0000000
136.45653,8.9987813e-14,0.0000000
136.55654,8.9773540e-14,0.0000000
136.65655,8.9560269e-14,0.0000000
136.75656,8.9354064e-14,0.0000000
136.85657,8.9142201e-14,0.0000000
136.95657,8.8928524e-14,0.0000000
137.05658,8.8723834e-14,0.0000000
137.15659,8.8513465e-14,0.0000000
137.25660,8.8305366e-14,0.0000000
137.35661,8.8100000e-14,0.0000000
137.45662,8.7893273e-14,0.0000000
137.55663,8.7681472e-14,0.0000000
137.65663,8.7477533e-14,0.0000000
137.75664,8.7272054e-14,0.0000000
137.85665,8.7068214e-14,0.0000000
137.95666,8.6863997e-14,0.0000000
138.05667,8.6659148e-14,0.0000000
138.15668,8.6457531e-14,0.0000000
138.25669,8.6256074e-14,0.0000000
138.35670,8.6054488e-14,0.0000000
138.45671,8.5853792e-14,0.0000000
138.55671,8.5651636e-14,0.0000000
138.65672,8.5454163e-14,0.0000000
138.75673,8.5251805e-14,0.0000000
138.85674,8.5055812e-14,0.0000000
138.95675,8.4854699e-14,0.0000000
139.05676,8.4655757e-14,0.0000000
139.15677,8.4456556e-14,0.0000000
139.25678,8.4264230e-14,0.0000000
139.35679,8.4065583e-14,0.0000000
139.45680,8.3867346e-14,0.0000000
139.55681,8.3674826e-14,0.0000000
139.65682,8.3477031e-14,0.0000000
139.75683,8.3284317e-14,0.0000000
139.85684,8.3092315e-14,0.0000000
139.95685,8.2899591e-14,0.0000000
140.05686,8.2704125e-14,0.0000000
140.15687,8.2512657e-14,0.0000000
140.25688,8.2321596e-14,0.0000000
140.35689,8.2129516e-14,0.0000000
140.45690,8.1940397e-14,0.0000000
140.55691,8.1748153e-14,0.0000000
140.65692,8.1560816e-14,0.0000000
140.75693,8.1369971e-14,0.0000000
140.85694,8.1181094e-14,0.0000000
140.95695,8.0994235e-14,0.0000000
141.05696,8.0806406e-14,0.0000000
141.15697,8.0617078e-14,0.0000000
141.25698,8.0435037e-14,0.0000000
141.35699,8.0246430e-14,0.0000000
141.45700,8.0063789e-14,0.0000000
141.55701,7.9879865e-14,0.0000000
141.65702,7.9692609e-14,0.0000000
141.75703,7.9506651e-14,0.0000000
141.85704,7.9322434e-14,0.0000000
141.95705,7.9140593e-14,0.0000000
142.05706,7.8958708e-14,0.0000000
142.15707,7.8777484e-14,0.0000000
142.25708,7.8596066e-14,0.0000000
142.35709,7.8414103e-14,0.0000000
142.45711,7.8234711e-14,0.0000000
142.55712,7.8056824e-14,0.0000000
142.65713,7.7876915e-14,0.0000000
142.75714,7.7695072e-14,0.0000000
142.85715,7.7519428e-14,0.0000000
142.95716,7.7341885e-14,0.0000000
143.05717,7.7165242e-14,0.0000000
143.15718,7.6987085e-14,0.0000000
143.25719,7.6811668e-14,0.0000000
143.35720,7.6633843e-14,0.0000000
143.45722,7.6459362e-14,0.0000000
143.55723,7.6286825e-14,0.0000000
143.65724,7.6107742e-14,0.0000000
143.75725,7.5933664e-14,0.0000000
143.85726,7.5761350e-14,0.0000000
143.95727,7.5588768e-14,0.0000000
144.05728,7.5417090e-14,0.0000000
144.15729,7.5245374e-14,0.0000000
144.25731,7.5072828e-14,0.0000000
144.35732,7.4900117e-14,0.0000000
144.45733,7.4729211e-14,0.0000000
144.55734,7.4563460e-14,0.0000000
144.65735,7.4392539e-14,0.0000000
144.75736,7.4220662e-14,0.0000000
144.85738,7.4055909e-14,0.0000000
144.95739,7.3884884e-14,0.0000000
145.05740,7.3712941e-14,0.0000000
145.15741,7.3545186e-14,0.0000000
145.25742,7.3383835e-14,0.0000000
145.35743,7.3216770e-14,0.0000000
145.45745,7.3048207e-14,0.0000000
145.55746,7.2881152e-14,0.0000000
145.65747,7.2720760e-14,0.0000000
145.75748,7.2553837e-14,0.0000000
145.85749,7.2392350e-14,0.0000000
145.95751,7.2225694e-14,0.0000000
146.05752,7.2065775e-14,0.0000000
146.15753,7.1897497e-14,0.0000000
146.25754,7.1738957e-14,0.0000000
146.35756,7.1572403e-14,0.0000000
146.45757,7.1412267e-14,0.0000000
146.55758,7.1253840e-14,0.0000000
146.65759,7.1092626e-14,0.0000000
146.75760,7.0931192e-14,0.0000000
146.85762,7.0775140e-14,0.0000000
146.95763,7.0612123e-14,0.0000000
147.05764,7.0455787e-14,0.0000000
147.15765,7.0297947e-14,0.0000000
147.25767,7.0134920e-14,0.0000000
147.35768,6.9978293e-14,0.0000000
147.45769,6.9824095e-14,0.0000000
147.55770,6.9665467e-14,0.0000000
147.65772,6.9506828e-14,0.0000000
147.75773,6.9355035e-14,0.0000000
147.85774,6.9196745e-14,0.0000000
147.95776,6.9045748e-14,0.0000000
148.05777,6.8888870e-14,0.0000000
148.15778,6.8733447e-14,0.0000000
148.25779,6.8579750e-14,0.0000000
148.35781,6.8423600e-14,0.0000000
148.45782,6.8273737e-14,0.0000000
148.55783,6.8122756e-14,0.0000000
148.65785,6.7969566e-14,0.0000000
148.75786,6.7816941e-14,0.0000000
148.85787,6.7664805e-14,0.0000000
148.95788,6.7514565e-14,0.0000000
149.05790,6.7366680e-14,0.0000000
149.15791,6.7213951e-14,0.0000000
149.25792,6.7064204e-14,0.0000000
149.35794,6.6914529e-14,0.0000000
149.45795,6.6766690e-14,0.0000000
149.55796,6.6617052e-14,0.0000000
149.65798,6.6468014e-14,0.0000000
149.75799,6.6321051e-14,0.0000000
149.85800,6.6175885e-14,0.0000000
149.95802,6.6026829e-14,0.0000000
150.05803,6.5882695e-14,0.0000000
150.15804,6.5738895e-14,0.0000000
150.25806,6.5589079e-14,0.0000000
150.35807,6.5445723e-14,0.0000000
150.45809,6.5302024e-14,0.0000000
150.55810,6.5157934e-14,0.0000000
150.65811,6.5012696e-14,0.0000000
150.75813,6.4867260e-14,0.0000000
150.85814,6.4723550e-14,0.0000000
150.95815,6.4579867e-14,0.0000000
151.05817,6.4436918e-14,0.0000000
151.15818,6.4294942e-14,0.0000000
151.25819,6.4152266e-14,0.0000000
151.35821,6.4014669e-14,0.0000000
151.45822,6.3873587e-14,0.0000000
151.55824,6.3731496e-14,0.0000000
151.65825,6.3590914e-14,0.0000000
151.75826,6.3452952e-14,0.0000000
151.85828,6.3313098e-14,0.0000000
151.95829,6.3171547e-14,0.0000000
152.05831,6.3035683e-14,0.0000000
152.15832,6.2895266e-14,0.0000000
152.25833,6.2756218e-14,0.0000000
152.35835,6.2618446e-14,0.0000000
152.45836,6.2485117e-14,0.0000000
152.55838,6.2346317e-14,0.0000000
152.65839,6.2206843e-14,0.0000000
152.75841,6.2074548e-14,0.0000000
152.85842,6.1936504e-14,0.0000000
152.95843,6.1799587e-14,0.0000000
153.05845,6.1665933e-14,0.0000000
153.15846,6.1534032e-14,0.0000000
153.25848,6.1396879e-14,0.0000000
153.35849,6.1265952e-14,0.0000000
153.45851,6.1127814e-14,0.0000000
153.55852,6.0997895e-14,0.0000000
153.65854,6.0864569e-14,0.0000000
153.75855,6.0727775e-14,0.0000000
153.85856,6.0597751e-14,0.0000000
153.95858,6.0466729e-14,0.0000000
154.05859,6.0336442e-14,0.0000000
154.15861,6.0206366e-14,0.0000000
154.25862,6.0076164e-14,0.0000000
154.35864,5.9939195e-14,0.0000000
154.45865,5.9809067e-14,0.0000000
154.55867,5.9679104e-14,0.0000000
154.65868,5.9555801e-14,0.0000000
154.75870,5.9426896e-14,0.0000000
154.85871,5.9297141e-14,0.0000000
154.95873,5.9166976e-14,0.0000000
155.05874,5.9037103e-14,0.0000000
155.15876,5.8908506e-14,0.0000000
155.25877,5.8785133e-14,0.0000000
155.35879,5.8656559e-14,0.0000000
155.45880,5.8527897e-14,0.0000000
155.55882,5.8404737e-14,0.0000000
155.65883,5.8276169e-14,0.0000000
155.75885,5.8149927e-14,0.0000000
155.85886,5.8026927e-14,0.0000000
155.95888,5.7900485e-14,0.0000000
156.05889,5.7773966e-14,0.0000000
156.15891,5.7646867e-14,0.0000000
156.25892,5.7529387e-14,0.0000000
156.35894,5.7401996e-14,0.0000000
156.45895,5.7276726e-14,0.0000000
156.55897,5.7157311e-14,0.0000000
156.65898,5.7031862e-14,0.0000000
156.75900,5.6913215e-14,0.0000000
156.85901,5.6787089e-14,0.0000000
156.95903,5.6668546e-14,0.0000000
157.05904,5.6544076e-14,0.0000000
157.15906,5.6425410e-14,0.0000000
157.25908,5.6305759e-14,0.0000000
157.35909,5.6180857e-14,0.0000000
157.45911,5.6063307e-14,0.0000000
157.55912,5.5945695e-14,0.0000000
157.65914,5.5820052e-14,0.0000000
157.75915,5.5702606e-14,0.0000000
157.85917,5.5585162e-14,0.0000000
157.95918,5.5467356e-14,0.0000000
158.05920,5.5347784e-14,0.0000000
158.15922,5.5231008e-14,0.0000000
158.25923,5.5107464e-14,0.0000000
158.35925,5.4990967e-14,0.0000000
158.45926,5.4875983e-14,0.0000000
158.55928,5.4759153e-14,0.0000000
158.65930,5.4642409e-14,0.0000000
158.75931,5.4527261e-14,0.0000000
158.85933,5.4412481e-14,0.0000000
158.95934,5.4294882e-14,0.0000000
159.05936,5.4179016e-14,0.0000000
159.15937,5.4062342e-14,0.0000000
159.25939,5.3952862e-14,0.0000000
159.35941,5.3836257e-14,0.0000000
159.45942,5.3720484e-14,0.0000000
159.55944,5.3606682e-14,0.0000000
159.65945,5.3493740e-14,0.0000000
159.75947,5.3381742e-14,0.0000000
159.85949,5.3267849e-14,0.0000000
159.95950,5.3155191e-14,0.0000000
160.05952,5.3040489e-14,0.0000000
160.15954,5.2933356e-14,0.0000000
160.25955,5.2818903e-14,0.0000000
160.35957,5.2706952e-14,0.0000000
160.45958,5.2593525e-14,0.0000000
160.55960,5.2487358e-14,0.0000000
160.65962,5.2372872e-14,0.0000000
160.75963,5.2260269e-14,0.0000000
160.85965,5.2154977e-14,0.0000000
160.95967,5.2043082e-14,0.0000000
161.05968,5.1934771e-14,0.0000000
161.15970,5.1823827e-14,0.0000000
161.25971,5.1716691e-14,0.0000000
161.35973,5.1606589e-14,0.0000000
161.45975,5.1499034e-14,0.0000000
161.55976,5.1388169e-14,0.0000000
161.65978,5.1282944e-14,0.0000000
161.75980,5.1175457e-14,0.0000000
161.85981,5.1066614e-14,0.0000000
161.95983,5.0961374e-14,0.0000000
162.05985,5.0852962e-14,0.0000000
162.15986,5.0747472e-14,0.0000000
162.25988,5.0639993e-14,0.0000000
162.35990,5.0535991e-14,0.0000000
162.45991,5.0431454e-14,0.0000000
162.55993,5.0325915e-14,0.0000000
162.65995,5.0215709e-14,0.0000000
162.75996,5.0112261e-14,0.0000000
162.85998,5.0007448e-14,0.0000000
162.96000,4.9902751e-14,0.0000000
163.06001,4.9799540e-14,0.0000000
163.16003,4.9694756e-14,0.0000000
163.26005,4.9590434e-14,0.0000000
163.36007,4.9493635e-14,0.0000000
163.46008,4.9389839e-14,0.0000000
163.56010,4.9281243e-14,0.0000000
163.66012,4.9180833e-14,0.0000000
163.76013,4.9078431e-14,0.0000000
163.86015,4.8974963e-14,0.0000000
163.96017,4.8872738e-14,0.0000000
164.06018,4.8772494e-14,0.0000000
164.16020,4.8670379e-14,0.0000000
164.26022,4.8569745e-14,0.0000000
164.36024,4.8473662e-14,0.0000000
164.46025,4.8373723e-14,0.0000000
164.56027,4.8271385e-14,0.0000000
164.66029,4.8170673e-14,0.0000000
164.76030,4.8070870e-14,0.0000000
164.86032,4.7974462e-14,0.0000000
164.96034,4.7873123e-14,0.0000000
165.06036,4.7772621e-14,0.0000000
165.16037,4.7674781e-14,0.0000000
165.26039,4.7577097e-14,0.0000000
165.36041,4.7476308e-14,0.0000000
165.46043,4.7383133e-14,0.0000000
165.56044,4.7281698e-14,0.0000000
165.66046,4.7186326e-14,0.0000000
165.76048,4.7087332e-14,0.0000000
165.86049,4.6991945e-14,0.0000000
165.96051,4.6894190e-14,0.0000000
166.06053,4.6799303e-14,0.0000000
166.16055,4.6700926e-14,0.0000000
166.26056,4.6608138e-14,0.0000000
166.36058,4.6507725e-14,0.0000000
166.46060,4.6415239e-14,0.0000000
166.56062,4.6321357e-14,0.0000000
166.66064,4.6221969e-14,0.0000000
166.76065,4.6129274e-14,0.0000000
166.86067,4.6035542e-14,0.0000000
166.96069,4.5942817e-14,0.0000000
167.06071,4.5843528e-14,0.0000000
167.16072,4.5751325e-14,0.0000000
167.26074,4.5658689e-14,0.0000000
167.36076,4.5566051e-14,0.0000000
167.46078,4.5470082e-14,0.0000000
167.56079,4.5376887e-14,0.0000000
167.66081,4.5287116e-14,0.0000000
167.76083,4.5196812e-14,0.0000000
167.86085,4.5098228e-14,0.0000000
167.96087,4.5008491e-14,0.0000000
168.06088,4.4917949e-14,0.0000000
168.16090,4.4827392e-14,0.0000000
168.26092,4.4737255e-14,0.0000000
168.36094,4.4647007e-14,0.0000000
168.46095,4.4549553e-14,0.0000000
168.56097,4.4459513e-14,0.0000000
168.66099,4.4370133e-14,0.0000000
168.76101,4.4279710e-14,0.0000000
168.86103,4.4190161e-14,0.0000000
168.96104,4.4100422e-14,0.0000000
169.06106,4.4009870e-14,0.0000000
169.16108,4.3920948e-14,0.0000000
169.26110,4.3830671e-14,0.0000000
169.36112,4.3741593e-14,0.0000000
169.46114,4.3658508e-14,0.0000000
169.56115,4.3569153e-14,0.0000000
169.66117,4.3480506e-14,0.0000000
169.76119,4.3389808e-14,0.0000000
169.86121,4.3301157e-14,0.0000000
169.96123,4.3214195e-14,0.0000000
170.06124,4.3129945e-14,0.0000000
170.16126,4.3041186e-14,0.0000000
170.26128,4.2952494e-14,0.0000000
170.36130,4.2868642e-14,0.0000000
170.46132,4.2781247e-14,0.0000000
170.56134,4.2692544e-14,0.0000000
170.66135,4.2610706e-14,0.0000000
170.76137,4.2522967e-14,0.0000000
170.86139,4.2434962e-14,0.0000000
170.96141,4.2350915e-14,0.0000000
171.06143,4.2264207e-14,0.0000000
171.16145,4.2181287e-14,0.0000000
171.26146,4.2093830e-14,0.0000000
171.36148,4.2011956e-14,0.0000000
171.46150,4.1925479e-14,0.0000000
171.56152,4.1845593e-14,0.0000000
171.66154,4.1758920e-14,0.0000000
171.76156,4.1673186e-14,0.0000000
171.86158,4.1591930e-14,0.0000000
171.96159,4.1505230e-14,0.0000000
172.06161,4.1426386e-14,0.0000000
172.16163,4.1339683e-14,0.0000000
172.26165,4.1261144e-14,0.0000000
172.36167,4.1174364e-14,0.0000000
172.46169,4.1095793e-14,0.0000000
172.56171,4.1009075e-14,0.0000000
172.66172,4.0930503e-14,0.0000000
172.76174,4.0847236e-14,0.0000000
172.86176,4.0765133e-14,0.0000000
172.96178,4.0685446e-14,0.0000000
173.06180,4.0608333e-14,0.0000000
173.16182,4.0523203e-14,0.0000000
173.26184,4.0443286e-14,0.0000000
173.36186,4.0361127e-14,0.0000000
173.46187,4.0281345e-14,0.0000000
173.56189,4.0199688e-14,0.0000000
173.66191,4.0122320e-14,0.0000000
173.76193,4.0042651e-14,0.0000000
173.86195,3.9962844e-14,0.0000000
173.96197,3.9880821e-14,0.0000000
174.06199,3.9802274e-14,0.0000000
174.16201,3.9723228e-14,0.0000000
174.26203,3.9646201e-14,0.0000000
174.36204,3.9567864e-14,0.0000000
174.46206,3.9490266e-14,0.0000000
174.56208,3.9412233e-14,0.0000000
174.66210,3.9334368e-14,0.0000000
174.76212,3.9256825e-14,0.0000000
174.86214,3.9178029e-14,0.0000000
174.96216,3.9099659e-14,0.0000000
175.06218,3.9020910e-14,0.0000000
175.16220,3.8945314e-14,0.0000000
175.26222,3.8868382e-14,0.0000000
175.36224,3.8790631e-14,0.0000000
175.46225,3.8713828e-14,0.0000000
175.56227,3.8637198e-14,0.0000000
175.66229,3.8560405e-14,0.0000000
175.76231,3.8484837e-14,0.0000000
175.86233,3.8409642e-14,0.0000000
175.96235,3.8332611e-14,0.0000000
176.06237,3.8257604e-14,0.0000000
176.16239,3.8181230e-14,0.0000000
176.26241,3.8106148e-14,0.0000000
176.36243,3.8031779e-14,0.0000000
176.46245,3.7958989e-14,0.0000000
176.56247,3.7883167e-14,0.0000000
176.66249,3.7812306e-14,0.0000000
176.76251,3.7735284e-14,0.0000000
176.86252,3.7661002e-14,0.0000000
176.96254,3.7586039e-14,0.0000000
177.06256,3.7511588e-14,0.0000000
177.16258,3.7442677e-14,0.0000000
177.26260,3.7365700e-14,0.0000000
177.36262,3.7293072e-14,0.0000000
177.46264,3.7218856e-14,0.0000000
177.56266,3.7148744e-14,0.0000000
177.66268,3.7073417e-14,0.0000000
177.76270,3.7000062e-14,0.0000000
177.86272,3.6927854e-14,0.0000000
177.96274,3.6858625e-14,0.0000000
178.06276,3.6783321e-14,0.0000000
178.16278,3.6712501e-14,0.0000000
178.26280,3.6640413e-14,0.0000000
178.36282,3.6568449e-14,0.0000000
178.46284,3.6498625e-14,0.0000000
178.56286,3.6424883e-14,0.0000000
178.66288,3.6357383e-14,0.0000000
178.76290,3.6285785e-14,0.0000000
178.86291,3.6216061e-14,0.0000000
178.96293,3.6141935e-14,0.0000000
179.06295,3.6074889e-14,0.0000000
179.16297,3.6002986e-14,0.0000000
179.26299,3.5933395e-14,0.0000000
179.36301,3.5864721e-14,0.0000000
179.46303,3.5793324e-14,0.0000000
179.56305,3.5725548e-14,0.0000000
179.66307,3.5652338e-14,0.0000000
179.76309,3.5585271e-14,0.0000000
179.86311,3.5516507e-14,0.0000000
179.96313,3.5447535e-14,0.0000000
180.06315,3.5382164e-14,0.0000000
180.16317,3.5309688e-14,0.0000000
180.26319,3.5240121e-14,0.0000000
180.36321,3.5172335e-14,0.0000000
180.46323,3.5106294e-14,0.0000000
180.56325,3.5037990e-14,0.0000000
180.66327,3.4971295e-14,0.0000000
180.76329,3.4904173e-14,0.0000000
180.86331,3.4833612e-14,0.0000000
180.96333,3.4768333e-14,0.0000000
181.06335,3.4697578e-14,0.0000000
181.16337,3.4632361e-14,0.0000000
181.26339,3.4567771e-14,0.0000000
181.36341,3.4495507e-14,0.0000000
181.46343,3.4431320e-14,0.0000000
181.56345,3.4366695e-14,0.0000000
181.66347,3.4301852e-14,0.0000000
181.76349,3.4236517e-14,0.0000000
181.86351,3.4169499e-14,0.0000000
181.96353,3.4102575e-14,0.0000000
182.06355,3.4036829e-14,0.0000000
182.16357,3.3971247e-14,0.0000000
182.26359,3.3905072e-14,0.0000000
182.36361,3.3838138e-14,0.0000000
182.46363,3.3774256e-14,0.0000000
182.56365,3.3713000e-14,0.0000000
182.66367,3.3646668e-14,0.0000000
182.76369,3.3579850e-14,0.0000000
182.86371,3.3517293e-14,0.0000000
182.96373,3.3453701e-14,0.0000000
183.06375,3.3389443e-14,0.0000000
183.16377,3.3323285e-14,0.0000000
183.26379,3.3262416e-14,0.0000000
183.36381,3.3199315e-14,0.0000000
183.46383,3.3132150e-14,0.0000000
183.56386,3.3070830e-14,0.0000000
183.66388,3.3007627e-14,0.0000000
183.76390,3.2942117e-14,0.0000000
183.86392,3.2880142e-14,0.0000000
183.96394,3.2817655e-14,0.0000000
184.06396,3.2752821e-14,0.0000000
184.16398,3.2694814e-14,0.0000000
184.26400,3.2629722e-14,0.0000000
184.36402,3.2566239e-14,0.0000000
184.46404,3.2507207e-14,0.0000000
184.56406,3.2443441e-14,0.0000000
184.66408,3.2380801e-14,0.0000000
184.76410,3.2320913e-14,0.0000000
184.86412,3.2257419e-14,0.0000000
184.96414,3.2195282e-14,0.0000000
185.06416,3.2134710e-14,0.0000000
185.16418,3.2071945e-14,0.0000000
185.26420,3.2013439e-14,0.0000000
185.36422,3.1949561e-14,0.0000000
185.46424,3.1892250e-14,0.0000000
185.56426,3.1828871e-14,0.0000000
185.66428,3.1772244e-14,0.0000000
185.76431,3.1707937e-14,0.0000000
185.86433,3.1650900e-14,0.0000000
185.96435,3.1587505e-14,0.0000000
186.06437,3.1529388e-14,0.0000000
186.16439,3.1471924e-14,0.0000000
186.26441,3.1409861e-14,0.0000000
186.36443,3.1353176e-14,0.0000000
186.46445,3.1288321e-14,0.0000000
186.56447,3.1231951e-14,0.0000000
186.66449,3.1172523e-14,0.0000000
186.76451,3.1112046e-14,0.0000000
186.86453,3.1055311e-14,0.0000000
186.96455,3.0996125e-14,0.0000000
187.06457,3.0935710e-14,0.0000000
187.16460,3.0878984e-14,0.0000000
187.26462,3.0822250e-14,0.0000000
187.36464,3.0759357e-14,0.0000000
187.46466,3.0702583e-14,0.0000000
187.56468,3.0647076e-14,0.0000000
187.66470,3.0589796e-14,0.0000000
187.76472,3.0527163e-14,0.0000000
187.86474,3.0471385e-14,0.0000000
187.96476,3.0415133e-14,0.0000000
188.06478,3.0358222e-14,0.0000000
188.16480,3.0301768e-14,0.0000000
188.26482,3.0242601e-14,0.0000000
188.36485,3.0183322e-14,0.0000000
188.46487,3.0128241e-14,0.0000000
188.56489,3.0071314e-14,0.0000000
188.66491,3.0016797e-14,0.0000000
188.76493,2.9961364e-14,0.0000000
188.86495,2.9900477e-14,0.0000000
188.96497,2.9845336e-14,0.0000000
189.06499,2.9789803e-14,0.0000000
189.16501,2.9734819e-14,0.0000000
189.26503,2.9680427e-14,0.0000000
189.36506,2.9625649e-14,0.0000000
189.46508,2.9564141e-14,0.0000000
189.56510,2.9508366e-14,0.0000000
189.66512,2.9454751e-14,0.0000000
189.76514,2.9399152e-14,0.0000000
189.86516,2.9345581e-14,0.0000000
189.96518,2.9290075e-14,0.0000000
190.06520,2.9236338e-14,0.0000000
190.16522,2.9182700e-14,0.0000000
190.26525,2.9127074e-14,0.0000000
190.36527,2.9073466e-14,0.0000000
190.46529,2.9019048e-14,0.0000000
190.56531,2.8964179e-14,0.0000000
190.66533,2.8910545e-14,0.0000000
190.76535,2.8856406e-14,0.0000000
190.86537,2.8801223e-14,0.0000000
190.96539,2.8747563e-14,0.0000000
191.06541,2.8693921e-14,0.0000000
191.16544,2.8638228e-14,0.0000000
191.26546,2.8584563e-14,0.0000000
191.36548,2.8530893e-14,0.0000000
191.46550,2.8476895e-14,0.0000000
191.56552,2.8422047e-14,0.0000000
191.66554,2.8374663e-14,0.0000000
191.76556,2.8320979e-14,0.0000000
191.86558,2.8267283e-14,0.0000000
191.96561,2.8214533e-14,0.0000000
192.06563,2.8160852e-14,0.0000000
192.16565,2.8105430e-14,0.0000000
192.26567,2.8056488e-14,0.0000000
192.36569,2.8004845e-14,0.0000000
192.46571,2.7951123e-14,0.0000000
192.56573,2.7898692e-14,0.0000000
192.66576,2.7844960e-14,0.0000000
192.76578,2.7797742e-14,0.0000000
192.86580,2.7744002e-14,0.0000000
192.96582,2.7691189e-14,0.0000000
193.06584,2.7639736e-14,0.0000000
193.16586,2.7591789e-14,0.0000000
193.26588,2.7539269e-14,0.0000000
193.36591,2.7485029e-14,0.0000000
193.46593,2.7433791e-14,0.0000000
193.56595,2.7387149e-14,0.0000000
193.66597,2.7335430e-14,0.0000000
