wave,flux,fluxerr
135.05642,4.9263889e-14,0.0000000
135.15643,4.9155104e-14,0.0000000
135.25644,4.9046258e-14,0.0000000
135.35644,4.8940171e-14,0.0000000
135.45645,4.8831380e-14,0.0000000
135.55646,4.8722674e-14,0.0000000
135.65647,4.8616076e-14,0.0000000
135.75648,4.8511005e-14,0.0000000
135.85648,4.8402451e-14,0.0000000
135.95649,4.8294804e-14,0.0000000
136.05650,4.8190686e-14,0.0000000
136.15651,4.8084213e-14,0.0000000
136.25652,4.7975629e-14,0.0000000
136.35652,4.7872044e-14,0.0000000
136.45653,4.7764533e-14,0.0000000
136.55654,4.7660680e-14,0.0000000
136.65655,4.7555704e-14,0.0000000
136.75656,4.7450685e-14,0.0000000
136.85657,4.7345178e-14,0.0000000
136.95657,4.7242265e-14,0.0000000
137.05658,4.7138681e-14,0.0000000
137.15659,4.7034484e-14,0.0000000
137.25660,4.6933523e-14,0.0000000
137.35661,4.6828845e-14,0.0000000
137.45662,4.6724127e-14,0.0000000
137.55663,4.6623485e-14,0.0000000
137.65663,4.6521865e-14,0.0000000
137.75664,4.6420138e-14,0.0000000
137.85665,4.6316938e-14,0.0000000
137.95666,4.6214681e-14,0.0000000
138.05667,4.6115147e-14,0.0000000
138.15668,4.6013379e-14,0.0000000
138.25669,4.5909903e-14,0.0000000
138.35670,4.5812374e-14,0.0000000
138.45671,4.5713359e-14,0.0000000
138.55671,4.5612262e-14,0.0000000
138.65672,4.5511173e-14,0.0000000
138.75673,4.5410377e-14,0.0000000
138.85674,4.5311845e-14,0.0000000
138.95675,4.5212710e-14,0.0000000
139.05676,4.5113866e-14,0.0000000
139.15677,4.5016972e-14,0.0000000
139.25678,4.4917584e-14,0.0000000
139.35679,4.4821274e-14,0.0000000
139.45680,4.4721852e-14,0.0000000
139.55681,4.4625293e-14,0.0000000
139.65682,4.4526095e-14,0.0000000
139.75683,4.4428872e-14,0.0000000
139.85684,4.4332461e-14,0.0000000
139.95685,4.4234750e-14,0.0000000
140.05686,4.4139356e-14,0.0000000
140.15687,4.4043290e-14,0.0000000
140.25688,4.3945864e-14,0.0000000
140.35689,4.3853377e-14,0.0000000
140.45690,4.3755828e-14,0.0000000
140.55691,4.3660459e-14,0.0000000
140.65692,4.3565783e-14,0.0000000
140.75693,4.3472856e-14,0.0000000
140.85694,4.3375936e-14,0.0000000
140.95695,4.3282797e-14,0.0000000
141.05696,4.3188447e-14,0.0000000
141.15697,4.3092283e-14,0.0000000
141.25698,4.2999743e-14,0.0000000
141.35699,4.2907802e-14,0.0000000
141.45700,4.2815057e-14,0.0000000
141.55701,4.2721905e-14,0.0000000
141.65702,4.2627307e-14,0.0000000
141.75703,4.2536080e-14,0.0000000
141.85704,4.2444866e-14,0.0000000
141.95705,4.2349564e-14,0.0000000
142.05706,4.2258275e-14,0.0000000
142.15707,4.2168064e-14,0.0000000
142.25708,4.2077766e-14,0.0000000
142.35709,4.1986901e-14,0.0000000
142.45711,4.1895580e-14,0.0000000
142.55712,4.1806586e-14,0.0000000
142.65713,4.1715159e-14,0.0000000
142.75714,4.1623716e-14,0.0000000
142.85715,4.1535369e-14,0.0000000
142.95716,4.1445534e-14,0.0000000
143.05717,4.1354608e-14,0.0000000
143.15718,4.1264583e-14,0.0000000
143.25719,4.1174760e-14,0.0000000
143.35720,4.1089129e-14,0.0000000
143.45722,4.1000166e-14,0.0000000
143.55723,4.0909588e-14,0.0000000
143.65724,4.0823721e-14,0.0000000
143.75725,4.0734509e-14,0.0000000
143.85726,4.0648614e-14,0.0000000
143.95727,4.0557565e-14,0.0000000
144.05728,4.0473780e-14,0.0000000
144.15729,4.0383867e-14,0.0000000
144.25731,4.0297901e-14,0.0000000
144.35732,4.0212013e-14,0.0000000
144.45733,4.0124473e-14,0.0000000
144.55734,4.0038831e-14,0.0000000
144.65735,3.9953683e-14,0.0000000
144.75736,3.9867135e-14,0.0000000
144.85738,3.9780824e-14,0.0000000
144.95739,3.9694337e-14,0.0000000
145.05740,3.9610026e-14,0.0000000
145.15741,3.9527095e-14,0.0000000
145.25742,3.9441879e-14,0.0000000
145.35743,3.9356472e-14,0.0000000
145.45745,3.9273421e-14,0.0000000
145.55746,3.9190368e-14,0.0000000
145.65747,3.9105542e-14,0.0000000
145.75748,3.9020524e-14,0.0000000
145.85749,3.8936242e-14,0.0000000
145.95751,3.8852885e-14,0.0000000
146.05752,3.8770115e-14,0.0000000
146.15753,3.8687421e-14,0.0000000
146.25754,3.8605396e-14,0.0000000
146.35756,3.8522826e-14,0.0000000
146.45757,3.8440134e-14,0.0000000
146.55758,3.8357440e-14,0.0000000
146.65759,3.8276106e-14,0.0000000
146.75760,3.8194962e-14,0.0000000
146.85762,3.8114013e-14,0.0000000
146.95763,3.8032920e-14,0.0000000
147.05764,3.7953533e-14,0.0000000
147.15765,3.7872403e-14,0.0000000
147.25767,3.7789688e-14,0.0000000
147.35768,3.7710618e-14,0.0000000
147.45769,3.7631358e-14,0.0000000
147.55770,3.7549625e-14,0.0000000
147.65772,3.7470551e-14,0.0000000
147.75773,3.7389443e-14,0.0000000
147.85774,3.7310866e-14,0.0000000
147.95776,3.7233353e-14,0.0000000
148.05777,3.7152019e-14,0.0000000
148.15778,3.7075471e-14,0.0000000
148.25779,3.6995781e-14,0.0000000
148.35781,3.6917322e-14,0.0000000
148.45782,3.6837831e-14,0.0000000
148.55783,3.6761700e-14,0.0000000
148.65785,3.6681070e-14,0.0000000
148.75786,3.6606144e-14,0.0000000
148.85787,3.6527847e-14,0.0000000
148.95788,3.6450570e-14,0.0000000
149.05790,3.6373867e-14,0.0000000
149.15791,3.6296929e-14,0.0000000
149.25792,3.6219363e-14,0.0000000
149.35794,3.6143415e-14,0.0000000
149.45795,3.6069333e-14,0.0000000
149.55796,3.5990516e-14,0.0000000
149.65798,3.5916609e-14,0.0000000
149.75799,3.5839400e-14,0.0000000
149.85800,3.5765280e-14,0.0000000
149.95802,3.5687670e-14,0.0000000
150.05803,3.5613333e-14,0.0000000
150.15804,3.5539091e-14,0.0000000
150.25806,3.5464257e-14,0.0000000
150.35807,3.5389647e-14,0.0000000
150.45809,3.5314915e-14,0.0000000
150.55810,3.5240829e-14,0.0000000
150.65811,3.5167326e-14,0.0000000
150.75813,3.5093723e-14,0.0000000
150.85814,3.5020212e-14,0.0000000
150.95815,3.4946516e-14,0.0000000
151.05817,3.4873652e-14,0.0000000
151.15818,3.4799824e-14,0.0000000
151.25819,3.4726628e-14,0.0000000
151.35821,3.4652840e-14,0.0000000
151.45822,3.4579314e-14,0.0000000
151.55824,3.4507560e-14,0.0000000
151.65825,3.4434906e-14,0.0000000
151.75826,3.4363896e-14,0.0000000
151.85828,3.4291528e-14,0.0000000
151.95829,3.4220100e-14,0.0000000
152.05831,3.4147160e-14,0.0000000
152.15832,3.4075806e-14,0.0000000
152.25833,3.4006322e-14,0.0000000
152.35835,3.3936109e-14,0.0000000
152.45836,3.3863771e-14,0.0000000
152.55838,3.3791389e-14,0.0000000
152.65839,3.3722070e-14,0.0000000
152.75841,3.3653913e-14,0.0000000
152.85842,3.3581756e-14,0.0000000
152.95843,3.3509431e-14,0.0000000
153.05845,3.3443568e-14,0.0000000
153.15846,3.3371709e-14,0.0000000
153.25848,3.3302203e-14,0.0000000
153.35849,3.3233895e-14,0.0000000
153.45851,3.3163953e-14,0.0000000
153.55852,3.3096051e-14,0.0000000
153.65854,3.3024905e-14,0.0000000
153.75855,3.2958692e-14,0.0000000
153.85856,3.2887768e-14,0.0000000
153.95858,3.2820892e-14,0.0000000
154.05859,3.2755196e-14,0.0000000
154.15861,3.2683176e-14,0.0000000
154.25862,3.2617332e-14,0.0000000
154.35864,3.2551691e-14,0.0000000
154.45865,3.2481418e-14,0.0000000
154.55867,3.2413467e-14,0.0000000
154.65868,3.2347936e-14,0.0000000
154.75870,3.2282372e-14,0.0000000
154.85871,3.2211584e-14,0.0000000
154.95873,3.2146301e-14,0.0000000
155.05874,3.2079169e-14,0.0000000
155.15876,3.2013525e-14,0.0000000
155.25877,3.1947853e-14,0.0000000
155.35879,3.1881898e-14,0.0000000
155.45880,3.1816251e-14,0.0000000
155.55882,3.1750563e-14,0.0000000
155.65883,3.1684885e-14,0.0000000
155.75885,3.1619035e-14,0.0000000
155.85886,3.1553963e-14,0.0000000
155.95888,3.1489746e-14,0.0000000
156.05889,3.1424511e-14,0.0000000
156.15891,3.1360393e-14,0.0000000
156.25892,3.1294587e-14,0.0000000
156.35894,3.1230346e-14,0.0000000
156.45895,3.1166133e-14,0.0000000
156.55897,3.1102449e-14,0.0000000
156.65898,3.1038092e-14,0.0000000
156.75900,3.0973752e-14,0.0000000
156.85901,3.0909339e-14,0.0000000
156.95903,3.0844969e-14,0.0000000
157.05904,3.0780982e-14,0.0000000
157.15906,3.0722969e-14,0.0000000
157.25908,3.0658795e-14,0.0000000
157.35909,3.0594553e-14,0.0000000
157.45911,3.0530744e-14,0.0000000
157.55912,3.0470203e-14,0.0000000
157.65914,3.0406840e-14,0.0000000
157.75915,3.0343209e-14,0.0000000
157.85917,3.0284003e-14,0.0000000
157.95918,3.0220119e-14,0.0000000
158.05920,3.0155589e-14,0.0000000
158.15922,3.0098136e-14,0.0000000
158.25923,3.0033670e-14,0.0000000
158.35925,2.9974027e-14,0.0000000
158.45926,2.9911673e-14,0.0000000
158.55928,2.9851655e-14,0.0000000
158.65930,2.9788779e-14,0.0000000
158.75931,2.9729637e-14,0.0000000
158.85933,2.9670304e-14,0.0000000
158.95934,2.9607181e-14,0.0000000
159.05936,2.9549727e-14,0.0000000
159.15937,2.9486547e-14,0.0000000
159.25939,2.9428239e-14,0.0000000
159.35941,2.9368532e-14,0.0000000
159.45942,2.9307587e-14,0.0000000
159.55944,2.9247117e-14,0.0000000
159.65945,2.9189239e-14,0.0000000
159.75947,2.9126321e-14,0.0000000
159.85949,2.9069460e-14,0.0000000
159.95950,2.9010302e-14,0.0000000
160.05952,2.8950377e-14,0.0000000
160.15954,2.8892536e-14,0.0000000
160.25955,2.8835171e-14,0.0000000
160.35957,2.8773739e-14,0.0000000
160.45958,2.8716495e-14,0.0000000
160.55960,2.8658220e-14,0.0000000
160.65962,2.8602154e-14,0.0000000
160.75963,2.8541872e-14,0.0000000
160.85965,2.8483719e-14,0.0000000
160.95967,2.8427078e-14,0.0000000
161.05968,2.8369967e-14,0.0000000
161.15970,2.8311926e-14,0.0000000
161.25971,2.8255906e-14,0.0000000
161.35973,2.8199003e-14,0.0000000
161.45975,2.8141198e-14,0.0000000
161.55976,2.8082337e-14,0.0000000
161.65978,2.8026385e-14,0.0000000
161.75980,2.7969328e-14,0.0000000
161.85981,2.7913607e-14,0.0000000
161.95983,2.7858215e-14,0.0000000
162.05985,2.7801734e-14,0.0000000
162.15986,2.7745519e-14,0.0000000
162.25988,2.7689282e-14,0.0000000
162.35990,2.7633438e-14,0.0000000
162.45991,2.7575439e-14,0.0000000
162.55993,2.7522250e-14,0.0000000
162.65995,2.7465953e-14,0.0000000
162.75996,2.7410867e-14,0.0000000
162.85998,2.7354465e-14,0.0000000
162.96000,2.7298416e-14,0.0000000
163.06001,2.7245782e-14,0.0000000
163.16003,2.7190132e-14,0.0000000
163.26005,2.7136236e-14,0.0000000
163.36007,2.7084101e-14,0.0000000
163.46008,2.7028187e-14,0.0000000
163.56010,2.6973525e-14,0.0000000
163.66012,2.6918416e-14,0.0000000
163.76013,2.6867787e-14,0.0000000
163.86015,2.6812666e-14,0.0000000
163.96017,2.6757638e-14,0.0000000
164.06018,2.6703555e-14,0.0000000
164.16020,2.6651853e-14,0.0000000
164.26022,2.6597246e-14,0.0000000
164.36024,2.6542608e-14,0.0000000
164.46025,2.6490681e-14,0.0000000
164.56027,2.6437457e-14,0.0000000
164.66029,2.6382831e-14,0.0000000
164.76030,2.6332093e-14,0.0000000
164.86032,2.6278512e-14,0.0000000
164.96034,2.6226105e-14,0.0000000
165.06036,2.6172962e-14,0.0000000
165.16037,2.6121587e-14,0.0000000
165.26039,2.6069858e-14,0.0000000
165.36041,2.6017101e-14,0.0000000
165.46043,2.5965304e-14,0.0000000
165.56044,2.5913404e-14,0.0000000
165.66046,2.5862715e-14,0.0000000
165.76048,2.5811477e-14,0.0000000
165.86049,2.5759103e-14,0.0000000
165.96051,2.5706882e-14,0.0000000
166.06053,2.5657989e-14,0.0000000
166.16055,2.5604979e-14,0.0000000
166.26056,2.5553839e-14,0.0000000
166.36058,2.5504561e-14,0.0000000
166.46060,2.5450746e-14,0.0000000
166.56062,2.5402150e-14,0.0000000
166.66064,2.5350972e-14,0.0000000
166.76065,2.5302030e-14,0.0000000
166.86067,2.5251538e-14,0.0000000
166.96069,2.5199527e-14,0.0000000
167.06071,2.5150963e-14,0.0000000
167.16072,2.5100382e-14,0.0000000
167.26074,2.5051563e-14,0.0000000
167.36076,2.5000803e-14,0.0000000
167.46078,2.4953515e-14,0.0000000
167.56079,2.4900245e-14,0.0000000
167.66081,2.4853433e-14,0.0000000
167.76083,2.4801417e-14,0.0000000
167.86085,2.4754073e-14,0.0000000
167.96087,2.4706065e-14,0.0000000
168.06088,2.4656601e-14,0.0000000
168.16090,2.4609258e-14,0.0000000
168.26092,2.4559492e-14,0.0000000
168.36094,2.4511716e-14,0.0000000
168.46095,2.4464340e-14,0.0000000
168.56097,2.4414534e-14,0.0000000
168.66099,2.4366680e-14,0.0000000
168.76101,2.4319269e-14,0.0000000
168.86103,2.4269427e-14,0.0000000
168.96104,2.4221995e-14,0.0000000
169.06106,2.4174686e-14,0.0000000
169.16108,2.4127126e-14,0.0000000
169.26110,2.4077463e-14,0.0000000
169.36112,2.4029941e-14,0.0000000
169.46114,2.3983347e-14,0.0000000
169.56115,2.3936463e-14,0.0000000
169.66117,2.3890039e-14,0.0000000
169.76119,2.3841673e-14,0.0000000
169.86121,2.3794145e-14,0.0000000
169.96123,2.3746610e-14,0.0000000
170.06124,2.3702912e-14,0.0000000
170.16126,2.3656066e-14,0.0000000
170.26128,2.3608500e-14,0.0000000
170.36130,2.3561572e-14,0.0000000
170.46132,2.3517955e-14,0.0000000
170.56134,2.3470366e-14,0.0000000
170.66135,2.3423441e-14,0.0000000
170.76137,2.3379768e-14,0.0000000
170.86139,2.3332157e-14,0.0000000
170.96141,2.3285164e-14,0.0000000
171.06143,2.3241465e-14,0.0000000
171.16145,2.3194505e-14,0.0000000
171.26146,2.3151198e-14,0.0000000
171.36148,2.3104221e-14,0.0000000
171.46150,2.3058296e-14,0.0000000
171.56152,2.3014738e-14,0.0000000
171.66154,2.2968440e-14,0.0000000
171.76156,2.2924925e-14,0.0000000
171.86158,2.2879662e-14,0.0000000
171.96159,2.2833520e-14,0.0000000
172.06161,2.2790888e-14,0.0000000
172.16163,2.2744190e-14,0.0000000
172.26165,2.2702083e-14,0.0000000
172.36167,2.2655336e-14,0.0000000
172.46169,2.2613147e-14,0.0000000
172.56171,2.2566893e-14,0.0000000
172.66172,2.2524752e-14,0.0000000
172.76174,2.2478008e-14,0.0000000
172.86176,2.2438244e-14,0.0000000
172.96178,2.2391468e-14,0.0000000
173.06180,2.2349713e-14,0.0000000
173.16182,2.2304278e-14,0.0000000
173.26184,2.2260734e-14,0.0000000
173.36186,2.2219701e-14,0.0000000
173.46187,2.2175219e-14,0.0000000
173.56189,2.2132340e-14,0.0000000
173.66191,2.2090119e-14,0.0000000
173.76193,2.2044264e-14,0.0000000
173.86195,2.2004095e-14,0.0000000
173.96197,2.1961618e-14,0.0000000
174.06199,2.1915563e-14,0.0000000
174.16201,2.1876017e-14,0.0000000
174.26203,2.1833712e-14,0.0000000
174.36204,2.1791183e-14,0.0000000
174.46206,2.1747392e-14,0.0000000
174.56208,2.1705296e-14,0.0000000
174.66210,2.1663920e-14,0.0000000
174.76212,2.1623306e-14,0.0000000
174.86214,2.1581403e-14,0.0000000
174.96216,2.1540833e-14,0.0000000
175.06218,2.1494975e-14,0.0000000
175.16220,2.1453702e-14,0.0000000
175.26222,2.1413111e-14,0.0000000
175.36224,2.1371006e-14,0.0000000
175.46225,2.1331239e-14,0.0000000
175.56227,2.1289114e-14,0.0000000
175.66229,2.1250579e-14,0.0000000
175.76231,2.1208087e-14,0.0000000
175.86233,2.1166285e-14,0.0000000
175.96235,2.1124716e-14,0.0000000
176.06237,2.1083396e-14,0.0000000
176.16239,2.1044569e-14,0.0000000
176.26241,2.1003151e-14,0.0000000
176.36243,2.0964528e-14,0.0000000
176.46245,2.0923056e-14,0.0000000
176.56247,2.0884453e-14,0.0000000
176.66249,2.0843032e-14,0.0000000
176.76251,2.0804349e-14,0.0000000
176.86252,2.0763128e-14,0.0000000
176.96254,2.0724193e-14,0.0000000
177.06256,2.0683113e-14,0.0000000
177.16258,2.0644008e-14,0.0000000
177.26260,2.0604702e-14,0.0000000
177.36262,2.0564015e-14,0.0000000
177.46264,2.0525138e-14,0.0000000
177.56266,2.0484670e-14,0.0000000
177.66268,2.0445895e-14,0.0000000
177.76270,2.0405749e-14,0.0000000
177.86272,2.0365695e-14,0.0000000
177.96274,2.0326956e-14,0.0000000
178.06276,2.0285373e-14,0.0000000
178.16278,2.0246638e-14,0.0000000
178.26280,2.0212464e-14,0.0000000
178.36282,2.0171275e-14,0.0000000
178.46284,2.0132101e-14,0.0000000
178.56286,2.0093342e-14,0.0000000
178.66288,2.0055209e-14,0.0000000
178.76290,2.0018068e-14,0.0000000
178.86291,1.9978713e-14,0.0000000
178.96293,1.9939894e-14,0.0000000
179.06295,1.9901760e-14,0.0000000
179.16297,1.9865031e-14,0.0000000
179.26299,1.9825644e-14,0.0000000
179.36301,1.9787341e-14,0.0000000
179.46303,1.9750309e-14,0.0000000
179.56305,1.9713245e-14,0.0000000
179.66307,1.9675071e-14,0.0000000
179.76309,1.9639045e-14,0.0000000
179.86311,1.9599738e-14,0.0000000
179.96313,1.9562173e-14,0.0000000
180.06315,1.9523974e-14,0.0000000
180.16317,1.9489243e-14,0.0000000
180.26319,1.9450001e-14,0.0000000
180.36321,1.9412486e-14,0.0000000
180.46323,1.9374425e-14,0.0000000
180.56325,1.9340562e-14,0.0000000
180.66327,1.9300741e-14,0.0000000
180.76329,1.9262393e-14,0.0000000
180.86331,1.9229011e-14,0.0000000
180.96333,1.9191026e-14,0.0000000
181.06335,1.9156644e-14,0.0000000
181.16337,1.9119610e-14,0.0000000
181.26339,1.9081588e-14,0.0000000
181.36341,1.9048173e-14,0.0000000
181.46343,1.9009320e-14,0.0000000
181.56345,1.8975026e-14,0.0000000
181.66347,1.8936138e-14,0.0000000
181.76349,1.8901838e-14,0.0000000
181.86351,1.8864511e-14,0.0000000
181.96353,1.8827806e-14,0.0000000
182.06355,1.8792754e-14,0.0000000
182.16357,1.8757966e-14,0.0000000
182.26359,1.8721281e-14,0.0000000
182.36361,1.8684176e-14,0.0000000
182.46363,1.8649859e-14,0.0000000
182.56365,1.8616208e-14,0.0000000
182.66367,1.8578643e-14,0.0000000
182.76369,1.8544718e-14,0.0000000
182.86371,1.8507329e-14,0.0000000
182.96373,1.8473715e-14,0.0000000
183.06375,1.8439154e-14,0.0000000
183.16377,1.8403245e-14,0.0000000
183.26379,1.8368666e-14,0.0000000
183.36381,1.8332713e-14,0.0000000
183.46383,1.8299233e-14,0.0000000
183.56386,1.8265294e-14,0.0000000
183.66388,1.8228117e-14,0.0000000
183.76390,1.8194163e-14,0.0000000
183.86392,1.8161588e-14,0.0000000
183.96394,1.8123603e-14,0.0000000
184.06396,1.8091198e-14,0.0000000
184.16398,1.8058139e-14,0.0000000
184.26400,1.8021870e-14,0.0000000
184.36402,1.7988435e-14,0.0000000
184.46404,1.7955343e-14,0.0000000
184.56406,1.7918987e-14,0.0000000
184.66408,1.7885965e-14,0.0000000
184.76410,1.7853939e-14,0.0000000
184.86412,1.7815988e-14,0.0000000
184.96414,1.7784746e-14,0.0000000
185.06416,1.7752875e-14,0.0000000
185.16418,1.7715890e-14,0.0000000
185.26420,1.7682966e-14,0.0000000
185.36422,1.7650783e-14,0.0000000
185.46424,1.7616747e-14,0.0000000
185.56426,1.7583271e-14,0.0000000
185.66428,1.7549872e-14,0.0000000
185.76431,1.7517260e-14,0.0000000
185.86433,1.7485397e-14,0.0000000
185.96435,1.7451657e-14,0.0000000
186.06437,1.7416466e-14,0.0000000
186.16439,1.7384149e-14,0.0000000
186.26441,1.7351368e-14,0.0000000
186.36443,1.7319826e-14,0.0000000
186.46445,1.7288175e-14,0.0000000
186.56447,1.7254751e-14,0.0000000
186.66449,1.7221553e-14,0.0000000
186.76451,1.7188655e-14,0.0000000
186.86453,1.7155552e-14,0.0000000
186.96455,1.7123335e-14,0.0000000
187.06457,1.7092118e-14,0.0000000
187.16460,1.7059299e-14,0.0000000
187.26462,1.7027216e-14,0.0000000
187.36464,1.6995417e-14,0.0000000
187.46466,1.6961394e-14,0.0000000
187.56468,1.6930864e-14,0.0000000
187.66470,1.6898759e-14,0.0000000
187.76472,1.6865158e-14,0.0000000
187.86474,1.6831159e-14,0.0000000
187.96476,1.6802901e-14,0.0000000
188.06478,1.6769621e-14,0.0000000
188.16480,1.6740696e-14,0.0000000
188.26482,1.6706632e-14,0.0000000
188.36485,1.6673070e-14,0.0000000
188.46487,1.6644608e-14,0.0000000
188.56489,1.6611829e-14,0.0000000
188.66491,1.6582688e-14,0.0000000
188.76493,1.6549774e-14,0.0000000
188.86495,1.6516338e-14,0.0000000
188.96497,1.6488538e-14,0.0000000
189.06499,1.6455907e-14,0.0000000
189.16501,1.6423517e-14,0.0000000
189.26503,1.6394051e-14,0.0000000
189.36506,1.6360343e-14,0.0000000
189.46508,1.6333266e-14,0.0000000
189.56510,1.6299827e-14,0.0000000
189.66512,1.6271959e-14,0.0000000
189.76514,1.6239292e-14,0.0000000
189.86516,1.6211104e-14,0.0000000
189.96518,1.6177825e-14,0.0000000
190.06520,1.6149972e-14,0.0000000
190.16522,1.6116646e-14,0.0000000
190.26525,1.6086563e-14,0.0000000
190.36527,1.6056423e-14,0.0000000
190.46529,1.6025573e-14,0.0000000
190.56531,1.5994706e-14,0.0000000
190.66533,1.5966465e-14,0.0000000
190.76535,1.5934474e-14,0.0000000
190.86537,1.5906062e-14,0.0000000
190.96539,1.5876683e-14,0.0000000
191.06541,1.5846030e-14,0.0000000
191.16544,1.5815621e-14,0.0000000
191.26546,1.5785329e-14,0.0000000
191.36548,1.5756764e-14,0.0000000
191.46550,1.5727689e-14,0.0000000
191.56552,1.5695954e-14,0.0000000
191.66554,1.5666655e-14,0.0000000
191.76556,1.5636332e-14,0.0000000
191.86558,1.5607302e-14,0.0000000
191.96561,1.5578826e-14,0.0000000
192.06563,1.5548732e-14,0.0000000
192.16565,1.5518596e-14,0.0000000
192.26567,1.5490215e-14,0.0000000
192.36569,1.5461007e-14,0.0000000
192.46571,1.5431125e-14,0.0000000
192.56573,1.5403114e-14,0.0000000
192.66576,1.5373212e-14,0.0000000
192.76578,1.5343881e-14,0.0000000
192.86580,1.5314947e-14,0.0000000
192.96582,1.5287321e-14,0.0000000
193.06584,1.5258029e-14,0.0000000
193.16586,1.5227882e-14,0.0000000
193.26588,1.5199285e-14,0.0000000
193.36591,1.5171539e-14,0.0000000
193.46593,1.5142198e-14,0.0000000
193.56595,1.5112440e-14,0.0000000
193.66597,1.5085211e-14,0.0000000
