wave,flux,fluxerr
1350.5642,8.0212965e-15,0.0000000
1351.5643,8.0108298e-15,0.0000000
1352.5644,8.0000674e-15,0.0000000
1353.5644,7.9890174e-15,0.0000000
1354.5645,7.9780676e-15,0.0000000
1355.5646,7.9672244e-15,0.0000000
1356.5647,7.9560349e-15,0.0000000
1357.5648,7.9446236e-15,0.0000000
1358.5648,7.9334171e-15,0.0000000
1359.5649,7.9221036e-15,0.0000000
1360.5650,7.9112235e-15,0.0000000
1361.5651,7.8991957e-15,0.0000000
1362.5652,7.8874123e-15,0.0000000
1363.5652,7.8763766e-15,0.0000000
1364.5653,7.8646781e-15,0.0000000
1365.5654,7.8526770e-15,0.0000000
1366.5655,7.8413159e-15,0.0000000
1367.5656,7.8292902e-15,0.0000000
1368.5657,7.8175639e-15,0.0000000
1369.5657,7.8056473e-15,0.0000000
1370.5658,7.7938651e-15,0.0000000
1371.5659,7.7817947e-15,0.0000000
1372.5660,7.7697205e-15,0.0000000
1373.5661,7.7574687e-15,0.0000000
1374.5662,7.7455640e-15,0.0000000
1375.5663,7.7336905e-15,0.0000000
1376.5663,7.7211989e-15,0.0000000
1377.5664,7.7089472e-15,0.0000000
1378.5665,7.6970351e-15,0.0000000
1379.5666,7.6846435e-15,0.0000000
1380.5667,7.6726950e-15,0.0000000
1381.5668,7.6607026e-15,0.0000000
1382.5669,7.6483926e-15,0.0000000
1383.5670,7.6359646e-15,0.0000000
1384.5671,7.6236782e-15,0.0000000
1385.5671,7.6109722e-15,0.0000000
1386.5672,7.5992999e-15,0.0000000
1387.5673,7.5866640e-15,0.0000000
1388.5674,7.5743336e-15,0.0000000
1389.5675,7.5615593e-15,0.0000000
1390.5676,7.5498479e-15,0.0000000
1391.5677,7.5369829e-15,0.0000000
1392.5678,7.5246074e-15,0.0000000
1393.5679,7.5120179e-15,0.0000000
1394.5680,7.5002472e-15,0.0000000
1395.5681,7.4873972e-15,0.0000000
1396.5682,7.4750973e-15,0.0000000
1397.5683,7.4625486e-15,0.0000000
1398.5684,7.4499061e-15,0.0000000
1399.5685,7.4378856e-15,0.0000000
1400.5686,7.4254949e-15,0.0000000
1401.5687,7.4131361e-15,0.0000000
1402.5688,7.4006537e-15,0.0000000
1403.5689,7.3878514e-15,0.0000000
1404.5690,7.3755056e-15,0.0000000
1405.5691,7.3634386e-15,0.0000000
1406.5692,7.3510164e-15,0.0000000
1407.5693,7.3384470e-15,0.0000000
1408.5694,7.3260400e-15,0.0000000
1409.5695,7.3136822e-15,0.0000000
1410.5696,7.3011110e-15,0.0000000
1411.5697,7.2889971e-15,0.0000000
1412.5698,7.2768447e-15,0.0000000
1413.5699,7.2643672e-15,0.0000000
1414.5700,7.2519573e-15,0.0000000
1415.5701,7.2395371e-15,0.0000000
1416.5702,7.2271503e-15,0.0000000
1417.5703,7.2150281e-15,0.0000000
1418.5704,7.2026609e-15,0.0000000
1419.5705,7.1903133e-15,0.0000000
1420.5706,7.1776711e-15,0.0000000
1421.5707,7.1657495e-15,0.0000000
1422.5708,7.1533862e-15,0.0000000
1423.5709,7.1413865e-15,0.0000000
1424.5711,7.1289764e-15,0.0000000
1425.5712,7.1164452e-15,0.0000000
1426.5713,7.1042136e-15,0.0000000
1427.5714,7.0920123e-15,0.0000000
1428.5715,7.0800174e-15,0.0000000
1429.5716,7.0677094e-15,0.0000000
1430.5717,7.0555967e-15,0.0000000
1431.5718,7.0439231e-15,0.0000000
1432.5719,7.0320384e-15,0.0000000
1433.5720,7.0195567e-15,0.0000000
1434.5722,7.0075282e-15,0.0000000
1435.5723,6.9951684e-15,0.0000000
1436.5724,6.9831225e-15,0.0000000
1437.5725,6.9709875e-15,0.0000000
1438.5726,6.9590567e-15,0.0000000
1439.5727,6.9467929e-15,0.0000000
1440.5728,6.9349120e-15,0.0000000
1441.5729,6.9230762e-15,0.0000000
1442.5731,6.9109893e-15,0.0000000
1443.5732,6.8990585e-15,0.0000000
1444.5733,6.8870941e-15,0.0000000
1445.5734,6.8751710e-15,0.0000000
1446.5735,6.8637497e-15,0.0000000
1447.5736,6.8518283e-15,0.0000000
1448.5738,6.8398640e-15,0.0000000
1449.5739,6.8277464e-15,0.0000000
1450.5740,6.8159409e-15,0.0000000
1451.5741,6.8037592e-15,0.0000000
1452.5742,6.7925527e-15,0.0000000
1453.5743,6.7806548e-15,0.0000000
1454.5745,6.7691220e-15,0.0000000
1455.5746,6.7572322e-15,0.0000000
1456.5747,6.7455489e-15,0.0000000
1457.5748,6.7336978e-15,0.0000000
1458.5749,6.7217714e-15,0.0000000
1459.5751,6.7108146e-15,0.0000000
1460.5752,6.6989961e-15,0.0000000
1461.5753,6.6870181e-15,0.0000000
1462.5754,6.6757037e-15,0.0000000
1463.5756,6.6639490e-15,0.0000000
1464.5757,6.6526131e-15,0.0000000
1465.5758,6.6409057e-15,0.0000000
1466.5759,6.6293043e-15,0.0000000
1467.5760,6.6177049e-15,0.0000000
1468.5762,6.6067524e-15,0.0000000
1469.5763,6.5949772e-15,0.0000000
1470.5764,6.5832887e-15,0.0000000
1471.5765,6.5721796e-15,0.0000000
1472.5767,6.5608648e-15,0.0000000
1473.5768,6.5492128e-15,0.0000000
1474.5769,6.5380864e-15,0.0000000
1475.5770,6.5267462e-15,0.0000000
1476.5772,6.5150729e-15,0.0000000
1477.5773,6.5044512e-15,0.0000000
1478.5774,6.4926317e-15,0.0000000
1479.5776,6.4817794e-15,0.0000000
1480.5777,6.4702164e-15,0.0000000
1481.5778,6.4590348e-15,0.0000000
1482.5779,6.4477736e-15,0.0000000
1483.5781,6.4366554e-15,0.0000000
1484.5782,6.4259880e-15,0.0000000
1485.5783,6.4142518e-15,0.0000000
1486.5785,6.4036601e-15,0.0000000
1487.5786,6.3921744e-15,0.0000000
1488.5787,6.3812366e-15,0.0000000
1489.5788,6.3702723e-15,0.0000000
1490.5790,6.3593354e-15,0.0000000
1491.5791,6.3478484e-15,0.0000000
1492.5792,6.3374140e-15,0.0000000
1493.5794,6.3262374e-15,0.0000000
1494.5795,6.3152661e-15,0.0000000
1495.5796,6.3043767e-15,0.0000000
1496.5798,6.2940149e-15,0.0000000
1497.5799,6.2824912e-15,0.0000000
1498.5800,6.2718678e-15,0.0000000
1499.5802,6.2610019e-15,0.0000000
1500.5803,6.2504143e-15,0.0000000
1501.5804,6.2396545e-15,0.0000000
1502.5806,6.2286681e-15,0.0000000
1503.5807,6.2176360e-15,0.0000000
1504.5809,6.2072902e-15,0.0000000
1505.5810,6.1961675e-15,0.0000000
1506.5811,6.1858344e-15,0.0000000
1507.5813,6.1750401e-15,0.0000000
1508.5814,6.1643574e-15,0.0000000
1509.5815,6.1540131e-15,0.0000000
1510.5817,6.1431812e-15,0.0000000
1511.5818,6.1325894e-15,0.0000000
1512.5819,6.1220385e-15,0.0000000
1513.5821,6.1112701e-15,0.0000000
1514.5822,6.1010442e-15,0.0000000
1515.5824,6.0908745e-15,0.0000000
1516.5825,6.0803637e-15,0.0000000
1517.5826,6.0694906e-15,0.0000000
1518.5828,6.0591529e-15,0.0000000
1519.5829,6.0493066e-15,0.0000000
1520.5831,6.0387921e-15,0.0000000
1521.5832,6.0278564e-15,0.0000000
1522.5833,6.0177270e-15,0.0000000
1523.5835,6.0075350e-15,0.0000000
1524.5836,5.9971982e-15,0.0000000
1525.5838,5.9870945e-15,0.0000000
1526.5839,5.9769427e-15,0.0000000
1527.5841,5.9664179e-15,0.0000000
1528.5842,5.9558858e-15,0.0000000
1529.5843,5.9462413e-15,0.0000000
1530.5845,5.9360689e-15,0.0000000
1531.5846,5.9254977e-15,0.0000000
1532.5848,5.9157031e-15,0.0000000
1533.5849,5.9055095e-15,0.0000000
1534.5851,5.8951913e-15,0.0000000
1535.5852,5.8851299e-15,0.0000000
1536.5854,5.8750579e-15,0.0000000
1537.5855,5.8653083e-15,0.0000000
1538.5856,5.8551274e-15,0.0000000
1539.5858,5.8454754e-15,0.0000000
1540.5859,5.8352691e-15,0.0000000
1541.5861,5.8256306e-15,0.0000000
1542.5862,5.8152064e-15,0.0000000
1543.5864,5.8056017e-15,0.0000000
1544.5865,5.7954590e-15,0.0000000
1545.5867,5.7853529e-15,0.0000000
1546.5868,5.7758510e-15,0.0000000
1547.5870,5.7657802e-15,0.0000000
1548.5871,5.7560336e-15,0.0000000
1549.5873,5.7464322e-15,0.0000000
1550.5874,5.7366523e-15,0.0000000
1551.5876,5.7267046e-15,0.0000000
1552.5877,5.7169715e-15,0.0000000
1553.5879,5.7073691e-15,0.0000000
1554.5880,5.6977312e-15,0.0000000
1555.5882,5.6882021e-15,0.0000000
1556.5883,5.6784655e-15,0.0000000
1557.5885,5.6685823e-15,0.0000000
1558.5886,5.6590827e-15,0.0000000
1559.5888,5.6493931e-15,0.0000000
1560.5889,5.6399978e-15,0.0000000
1561.5891,5.6304587e-15,0.0000000
1562.5892,5.6206692e-15,0.0000000
1563.5894,5.6111841e-15,0.0000000
1564.5895,5.6018683e-15,0.0000000
1565.5897,5.5925195e-15,0.0000000
1566.5898,5.5830269e-15,0.0000000
1567.5900,5.5733650e-15,0.0000000
1568.5901,5.5642542e-15,0.0000000
1569.5903,5.5549446e-15,0.0000000
1570.5904,5.5453568e-15,0.0000000
1571.5906,5.5360845e-15,0.0000000
1572.5908,5.5266144e-15,0.0000000
1573.5909,5.5173191e-15,0.0000000
1574.5911,5.5080257e-15,0.0000000
1575.5912,5.4987373e-15,0.0000000
1576.5914,5.4893593e-15,0.0000000
1577.5915,5.4802954e-15,0.0000000
1578.5917,5.4712410e-15,0.0000000
1579.5918,5.4620544e-15,0.0000000
1580.5920,5.4528270e-15,0.0000000
1581.5922,5.4434431e-15,0.0000000
1582.5923,5.4341199e-15,0.0000000
1583.5925,5.4251398e-15,0.0000000
1584.5926,5.4163581e-15,0.0000000
1585.5928,5.4069581e-15,0.0000000
1586.5930,5.3978422e-15,0.0000000
1587.5931,5.3889602e-15,0.0000000
1588.5933,5.3798771e-15,0.0000000
1589.5934,5.3706387e-15,0.0000000
1590.5936,5.3619169e-15,0.0000000
1591.5937,5.3530949e-15,0.0000000
1592.5939,5.3438984e-15,0.0000000
1593.5941,5.3349673e-15,0.0000000
1594.5942,5.3262695e-15,0.0000000
1595.5944,5.3172518e-15,0.0000000
1596.5945,5.3083238e-15,0.0000000
1597.5947,5.2995413e-15,0.0000000
1598.5949,5.2907766e-15,0.0000000
1599.5950,5.2816825e-15,0.0000000
1600.5952,5.2730340e-15,0.0000000
1601.5954,5.2642757e-15,0.0000000
1602.5955,5.2554589e-15,0.0000000
1603.5957,5.2467571e-15,0.0000000
1604.5958,5.2380502e-15,0.0000000
1605.5960,5.2289350e-15,0.0000000
1606.5962,5.2204452e-15,0.0000000
1607.5963,5.2119723e-15,0.0000000
1608.5965,5.2032804e-15,0.0000000
1609.5967,5.1943656e-15,0.0000000
1610.5968,5.1862363e-15,0.0000000
1611.5970,5.1771422e-15,0.0000000
1612.5971,5.1686150e-15,0.0000000
1613.5973,5.1601122e-15,0.0000000
1614.5975,5.1514825e-15,0.0000000
1615.5976,5.1429183e-15,0.0000000
1616.5978,5.1344147e-15,0.0000000
1617.5980,5.1258807e-15,0.0000000
1618.5981,5.1173875e-15,0.0000000
1619.5983,5.1090672e-15,0.0000000
1620.5985,5.1004160e-15,0.0000000
1621.5986,5.0920044e-15,0.0000000
1622.5988,5.0837101e-15,0.0000000
1623.5990,5.0751171e-15,0.0000000
1624.5991,5.0666808e-15,0.0000000
1625.5993,5.0585740e-15,0.0000000
1626.5995,5.0501724e-15,0.0000000
1627.5996,5.0414789e-15,0.0000000
1628.5998,5.0330287e-15,0.0000000
1629.6000,5.0251216e-15,0.0000000
1630.6001,5.0165913e-15,0.0000000
1631.6003,5.0085934e-15,0.0000000
1632.6005,5.0005409e-15,0.0000000
1633.6007,4.9920207e-15,0.0000000
1634.6008,4.9840472e-15,0.0000000
1635.6010,4.9752482e-15,0.0000000
1636.6012,4.9673816e-15,0.0000000
1637.6013,4.9592298e-15,0.0000000
1638.6015,4.9511970e-15,0.0000000
1639.6017,4.9428453e-15,0.0000000
1640.6018,4.9344998e-15,0.0000000
1641.6020,4.9268258e-15,0.0000000
1642.6022,4.9185334e-15,0.0000000
1643.6024,4.9106084e-15,0.0000000
1644.6025,4.9024320e-15,0.0000000
1645.6027,4.8942993e-15,0.0000000
1646.6029,4.8864396e-15,0.0000000
1647.6030,4.8783972e-15,0.0000000
1648.6032,4.8703060e-15,0.0000000
1649.6034,4.8621562e-15,0.0000000
1650.6036,4.8544242e-15,0.0000000
1651.6037,4.8464108e-15,0.0000000
1652.6039,4.8383534e-15,0.0000000
1653.6041,4.8307374e-15,0.0000000
1654.6043,4.8228072e-15,0.0000000
1655.6044,4.8149238e-15,0.0000000
1656.6046,4.8072490e-15,0.0000000
1657.6048,4.7991571e-15,0.0000000
1658.6049,4.7913307e-15,0.0000000
1659.6051,4.7833837e-15,0.0000000
1660.6053,4.7755571e-15,0.0000000
1661.6055,4.7678644e-15,0.0000000
1662.6056,4.7600927e-15,0.0000000
1663.6058,4.7523726e-15,0.0000000
1664.6060,4.7445648e-15,0.0000000
1665.6062,4.7371172e-15,0.0000000
1666.6064,4.7290099e-15,0.0000000
1667.6065,4.7212783e-15,0.0000000
1668.6067,4.7138637e-15,0.0000000
1669.6069,4.7061422e-15,0.0000000
1670.6071,4.6984288e-15,0.0000000
1671.6072,4.6909040e-15,0.0000000
1672.6074,4.6829806e-15,0.0000000
1673.6076,4.6753066e-15,0.0000000
1674.6078,4.6681308e-15,0.0000000
1675.6079,4.6603341e-15,0.0000000
1676.6081,4.6527358e-15,0.0000000
1677.6083,4.6454159e-15,0.0000000
1678.6085,4.6377801e-15,0.0000000
1679.6087,4.6297252e-15,0.0000000
1680.6088,4.6228192e-15,0.0000000
1681.6090,4.6152274e-15,0.0000000
1682.6092,4.6079728e-15,0.0000000
1683.6094,4.6003528e-15,0.0000000
1684.6095,4.5928524e-15,0.0000000
1685.6097,4.5856515e-15,0.0000000
1686.6099,4.5777963e-15,0.0000000
1687.6101,4.5706872e-15,0.0000000
1688.6103,4.5631014e-15,0.0000000
1689.6104,4.5560640e-15,0.0000000
1690.6106,4.5480427e-15,0.0000000
1691.6108,4.5409461e-15,0.0000000
1692.6110,4.5335366e-15,0.0000000
1693.6112,4.5264656e-15,0.0000000
1694.6114,4.5189978e-15,0.0000000
1695.6115,4.5118211e-15,0.0000000
1696.6117,4.5048517e-15,0.0000000
1697.6119,4.4973669e-15,0.0000000
1698.6121,4.4903085e-15,0.0000000
1699.6123,4.4832484e-15,0.0000000
1700.6124,4.4758110e-15,0.0000000
1701.6126,4.4687720e-15,0.0000000
1702.6128,4.4616854e-15,0.0000000
1703.6130,4.4540506e-15,0.0000000
1704.6132,4.4470987e-15,0.0000000
1705.6134,4.4399735e-15,0.0000000
1706.6135,4.4328461e-15,0.0000000
1707.6137,4.4253751e-15,0.0000000
1708.6139,4.4182444e-15,0.0000000
1709.6141,4.4111053e-15,0.0000000
1710.6143,4.4046200e-15,0.0000000
1711.6145,4.3975206e-15,0.0000000
1712.6146,4.3900976e-15,0.0000000
1713.6148,4.3831471e-15,0.0000000
1714.6150,4.3760934e-15,0.0000000
1715.6152,4.3691936e-15,0.0000000
1716.6154,4.3621077e-15,0.0000000
1717.6156,4.3547712e-15,0.0000000
1718.6158,4.3477680e-15,0.0000000
1719.6159,4.3414988e-15,0.0000000
1720.6161,4.3346382e-15,0.0000000
1721.6163,4.3272516e-15,0.0000000
1722.6165,4.3203511e-15,0.0000000
1723.6167,4.3133407e-15,0.0000000
1724.6169,4.3065274e-15,0.0000000
1725.6171,4.3000525e-15,0.0000000
1726.6172,4.2932414e-15,0.0000000
1727.6174,4.2864283e-15,0.0000000
1728.6176,4.2792269e-15,0.0000000
1729.6178,4.2720470e-15,0.0000000
1730.6180,4.2655601e-15,0.0000000
1731.6182,4.2589390e-15,0.0000000
1732.6184,4.2519156e-15,0.0000000
1733.6186,4.2449896e-15,0.0000000
1734.6187,4.2386234e-15,0.0000000
1735.6189,4.2317667e-15,0.0000000
1736.6191,4.2249353e-15,0.0000000
1737.6193,4.2181990e-15,0.0000000
1738.6195,4.2117963e-15,0.0000000
1739.6197,4.2048669e-15,0.0000000
1740.6199,4.1981257e-15,0.0000000
1741.6201,4.1916203e-15,0.0000000
1742.6203,4.1853131e-15,0.0000000
1743.6204,4.1785137e-15,0.0000000
1744.6206,4.1718264e-15,0.0000000
1745.6208,4.1654232e-15,0.0000000
1746.6210,4.1584667e-15,0.0000000
1747.6212,4.1522795e-15,0.0000000
1748.6214,4.1452911e-15,0.0000000
1749.6216,4.1391365e-15,0.0000000
1750.6218,4.1326549e-15,0.0000000
1751.6220,4.1258852e-15,0.0000000
1752.6222,4.1190820e-15,0.0000000
1753.6224,4.1126268e-15,0.0000000
1754.6225,4.1064876e-15,0.0000000
1755.6227,4.0997458e-15,0.0000000
1756.6229,4.0934752e-15,0.0000000
1757.6231,4.0866075e-15,0.0000000
1758.6233,4.0805444e-15,0.0000000
1759.6235,4.0736766e-15,0.0000000
1760.6237,4.0676536e-15,0.0000000
1761.6239,4.0614549e-15,0.0000000
1762.6241,4.0547246e-15,0.0000000
1763.6243,4.0480715e-15,0.0000000
1764.6245,4.0418664e-15,0.0000000
1765.6247,4.0356008e-15,0.0000000
1766.6249,4.0295915e-15,0.0000000
1767.6251,4.0226567e-15,0.0000000
1768.6252,4.0166429e-15,0.0000000
1769.6254,4.0104441e-15,0.0000000
1770.6256,4.0041226e-15,0.0000000
1771.6258,3.9976761e-15,0.0000000
1772.6260,3.9914764e-15,0.0000000
1773.6262,3.9852585e-15,0.0000000
1774.6264,3.9785616e-15,0.0000000
1775.6266,3.9728278e-15,0.0000000
1776.6268,3.9662768e-15,0.0000000
1777.6270,3.9600449e-15,0.0000000
1778.6272,3.9539679e-15,0.0000000
1779.6274,3.9478012e-15,0.0000000
1780.6276,3.9414943e-15,0.0000000
1781.6278,3.9355462e-15,0.0000000
1782.6280,3.9287806e-15,0.0000000
1783.6282,3.9231139e-15,0.0000000
1784.6284,3.9165671e-15,0.0000000
1785.6286,3.9108874e-15,0.0000000
1786.6288,3.9045478e-15,0.0000000
1787.6290,3.8985815e-15,0.0000000
1788.6291,3.8924934e-15,0.0000000
1789.6293,3.8863146e-15,0.0000000
1790.6295,3.8802096e-15,0.0000000
1791.6297,3.8740165e-15,0.0000000
1792.6299,3.8679166e-15,0.0000000
1793.6301,3.8623977e-15,0.0000000
1794.6303,3.8556164e-15,0.0000000
1795.6305,3.8500954e-15,0.0000000
1796.6307,3.8440497e-15,0.0000000
1797.6309,3.8379495e-15,0.0000000
1798.6311,3.8322896e-15,0.0000000
1799.6313,3.8257454e-15,0.0000000
1800.6315,3.8203235e-15,0.0000000
1801.6317,3.8138303e-15,0.0000000
1802.6319,3.8083829e-15,0.0000000
1803.6321,3.8021695e-15,0.0000000
1804.6323,3.7962677e-15,0.0000000
1805.6325,3.7903346e-15,0.0000000
1806.6327,3.7842360e-15,0.0000000
1807.6329,3.7782691e-15,0.0000000
1808.6331,3.7726752e-15,0.0000000
1809.6333,3.7663259e-15,0.0000000
1810.6335,3.7608058e-15,0.0000000
1811.6337,3.7553998e-15,0.0000000
1812.6339,3.7490955e-15,0.0000000
1813.6341,3.7431219e-15,0.0000000
1814.6343,3.7375521e-15,0.0000000
1815.6345,3.7312244e-15,0.0000000
1816.6347,3.7258359e-15,0.0000000
1817.6349,3.7202966e-15,0.0000000
1818.6351,3.7139109e-15,0.0000000
1819.6353,3.7084901e-15,0.0000000
1820.6355,3.7028252e-15,0.0000000
1821.6357,3.6969167e-15,0.0000000
1822.6359,3.6909542e-15,0.0000000
1823.6361,3.6855299e-15,0.0000000
1824.6363,3.6799417e-15,0.0000000
1825.6365,3.6738199e-15,0.0000000
1826.6367,3.6681676e-15,0.0000000
1827.6369,3.6627349e-15,0.0000000
1828.6371,3.6572973e-15,0.0000000
1829.6373,3.6508966e-15,0.0000000
1830.6375,3.6451746e-15,0.0000000
1831.6377,3.6397140e-15,0.0000000
1832.6379,3.6342695e-15,0.0000000
1833.6381,3.6282946e-15,0.0000000
1834.6383,3.6226825e-15,0.0000000
1835.6386,3.6171476e-15,0.0000000
1836.6388,3.6114706e-15,0.0000000
1837.6390,3.6061102e-15,0.0000000
1838.6392,3.6000692e-15,0.0000000
1839.6394,3.5947162e-15,0.0000000
1840.6396,3.5892315e-15,0.0000000
1841.6398,3.5836317e-15,0.0000000
1842.6400,3.5781122e-15,0.0000000
1843.6402,3.5721617e-15,0.0000000
1844.6404,3.5668344e-15,0.0000000
1845.6406,3.5615049e-15,0.0000000
1846.6408,3.5560272e-15,0.0000000
1847.6410,3.5504977e-15,0.0000000
1848.6412,3.5444417e-15,0.0000000
1849.6414,3.5391046e-15,0.0000000
1850.6416,3.5338208e-15,0.0000000
1851.6418,3.5286104e-15,0.0000000
1852.6420,3.5231946e-15,0.0000000
1853.6422,3.5174193e-15,0.0000000
1854.6424,3.5119699e-15,0.0000000
1855.6426,3.5064221e-15,0.0000000
1856.6428,3.5008912e-15,0.0000000
1857.6431,3.4954818e-15,0.0000000
1858.6433,3.4903876e-15,0.0000000
1859.6435,3.4849734e-15,0.0000000
1860.6437,3.4792947e-15,0.0000000
1861.6439,3.4737354e-15,0.0000000
1862.6441,3.4683712e-15,0.0000000
1863.6443,3.4631155e-15,0.0000000
1864.6445,3.4578470e-15,0.0000000
1865.6447,3.4524376e-15,0.0000000
1866.6449,3.4471090e-15,0.0000000
1867.6451,3.4417892e-15,0.0000000
1868.6453,3.4365075e-15,0.0000000
1869.6455,3.4311936e-15,0.0000000
1870.6457,3.4252913e-15,0.0000000
1871.6460,3.4200370e-15,0.0000000
1872.6462,3.4147144e-15,0.0000000
1873.6464,3.4093283e-15,0.0000000
1874.6466,3.4044402e-15,0.0000000
1875.6468,3.3993472e-15,0.0000000
1876.6470,3.3939706e-15,0.0000000
1877.6472,3.3887428e-15,0.0000000
1878.6474,3.3833600e-15,0.0000000
1879.6476,3.3780926e-15,0.0000000
1880.6478,3.3727595e-15,0.0000000
1881.6480,3.3673644e-15,0.0000000
1882.6482,3.3626019e-15,0.0000000
1883.6485,3.3575451e-15,0.0000000
1884.6487,3.3521975e-15,0.0000000
1885.6489,3.3469158e-15,0.0000000
1886.6491,3.3416571e-15,0.0000000
1887.6493,3.3365015e-15,0.0000000
1888.6495,3.3312981e-15,0.0000000
1889.6497,3.3260230e-15,0.0000000
1890.6499,3.3210066e-15,0.0000000
1891.6501,3.3158297e-15,0.0000000
1892.6503,3.3108493e-15,0.0000000
1893.6506,3.3058477e-15,0.0000000
1894.6508,3.3004875e-15,0.0000000
1895.6510,3.2954642e-15,0.0000000
1896.6512,3.2901707e-15,0.0000000
1897.6514,3.2849551e-15,0.0000000
1898.6516,3.2797785e-15,0.0000000
1899.6518,3.2750668e-15,0.0000000
1900.6520,3.2701334e-15,0.0000000
1901.6522,3.2648306e-15,0.0000000
1902.6525,3.2595784e-15,0.0000000
1903.6527,3.2543919e-15,0.0000000
1904.6529,3.2494047e-15,0.0000000
1905.6531,3.2447185e-15,0.0000000
1906.6533,3.2394462e-15,0.0000000
1907.6535,3.2342075e-15,0.0000000
1908.6537,3.2290239e-15,0.0000000
1909.6539,3.2238898e-15,0.0000000
1910.6541,3.2191933e-15,0.0000000
1911.6544,3.2140892e-15,0.0000000
1912.6546,3.2088847e-15,0.0000000
1913.6548,3.2038608e-15,0.0000000
1914.6550,3.1990096e-15,0.0000000
1915.6552,3.1943769e-15,0.0000000
1916.6554,3.1893891e-15,0.0000000
1917.6556,3.1843706e-15,0.0000000
1918.6558,3.1792125e-15,0.0000000
1919.6561,3.1741932e-15,0.0000000
1920.6563,3.1692666e-15,0.0000000
1921.6565,3.1643553e-15,0.0000000
1922.6567,3.1594425e-15,0.0000000
1923.6569,3.1545749e-15,0.0000000
1924.6571,3.1497866e-15,0.0000000
1925.6573,3.1448652e-15,0.0000000
1926.6576,3.1399450e-15,0.0000000
1927.6578,3.1352162e-15,0.0000000
1928.6580,3.1302189e-15,0.0000000
1929.6582,3.1249857e-15,0.0000000
1930.6584,3.1200935e-15,0.0000000
1931.6586,3.1157476e-15,0.0000000
1932.6588,3.1107303e-15,0.0000000
1933.6591,3.1056094e-15,0.0000000
1934.6593,3.1010941e-15,0.0000000
1935.6595,3.0960958e-15,0.0000000
1936.6597,3.0911719e-15,0.0000000
