wave,flux
338.000,3.59681e-17
340.000,3.52561e-17
342.000,3.45617e-17
344.000,3.38842e-17
346.000,3.32234e-17
348.000,3.25785e-17
350.000,3.19494e-17
352.000,3.13353e-17
354.000,3.07361e-17
356.000,3.01511e-17
358.000,2.95800e-17
360.000,2.90226e-17
362.000,2.84782e-17
364.000,2.79467e-17
366.000,2.74030e-17
368.000,2.68701e-17
370.000,2.63478e-17
372.000,2.58327e-17
374.000,2.53438e-17
376.000,2.48937e-17
378.000,2.44961e-17
380.000,2.41038e-17
382.000,2.37672e-17
384.000,2.32832e-17
386.000,2.32431e-17
388.000,2.22278e-17
390.000,2.19957e-17
392.000,2.26109e-17
394.000,2.20561e-17
396.000,2.00432e-17
398.000,1.95018e-17
400.000,2.11852e-17
402.000,2.16530e-17
404.000,2.14276e-17
406.000,2.06086e-17
408.000,1.88342e-17
410.000,1.59079e-17
412.000,1.76052e-17
414.000,1.91556e-17
416.000,1.96145e-17
418.000,1.96203e-17
420.000,1.94340e-17
422.000,1.91541e-17
424.000,1.88102e-17
426.000,1.83891e-17
428.000,1.78158e-17
430.000,1.68910e-17
432.000,1.51547e-17
434.000,1.24595e-17
436.000,1.43794e-17
438.000,1.57604e-17
440.000,1.61813e-17
442.000,1.62078e-17
444.000,1.60780e-17
446.000,1.58872e-17
448.000,1.56712e-17
450.000,1.54445e-17
452.000,1.52137e-17
454.000,1.49823e-17
456.000,1.47521e-17
458.000,1.45239e-17
460.000,1.42983e-17
462.000,1.40752e-17
464.000,1.38545e-17
466.000,1.36357e-17
468.000,1.34178e-17
470.000,1.31993e-17
472.000,1.29774e-17
474.000,1.27471e-17
476.000,1.24985e-17
478.000,1.22108e-17
480.000,1.18372e-17
482.000,1.12646e-17
484.000,1.02123e-17
486.000,8.44439e-18
488.000,9.60546e-18
490.000,1.05191e-17
492.000,1.08108e-17
494.000,1.08541e-17
496.000,1.07951e-17
498.000,1.06918e-17
500.000,1.05684e-17
502.000,1.04358e-17
504.000,1.02991e-17
506.000,1.01611e-17
508.000,1.00232e-17
510.000,9.88800e-18
512.000,9.75415e-18
514.000,9.62026e-18
516.000,9.48821e-18
518.000,9.35810e-18
520.000,9.22997e-18
522.000,9.10384e-18
524.000,8.97972e-18
526.000,8.85761e-18
528.000,8.73747e-18
530.000,8.61929e-18
532.000,8.50303e-18
534.000,8.38867e-18
536.000,8.27618e-18
538.000,8.16553e-18
540.000,8.05668e-18
542.000,7.94958e-18
544.000,7.84578e-18
546.000,7.74209e-18
548.000,7.64004e-18
550.000,7.53964e-18
552.000,7.44086e-18
554.000,7.34368e-18
556.000,7.24806e-18
558.000,7.15397e-18
560.000,7.06140e-18
562.000,6.97030e-18
564.000,6.88066e-18
566.000,6.79245e-18
568.000,6.70563e-18
570.000,6.62020e-18
572.000,6.53611e-18
574.000,6.45334e-18
576.000,6.37188e-18
578.000,6.29170e-18
580.000,6.21277e-18
582.000,6.13507e-18
584.000,6.05859e-18
586.000,5.98329e-18
588.000,5.90915e-18
590.000,5.83618e-18
592.000,5.76432e-18
594.000,5.69356e-18
596.000,5.62320e-18
598.000,5.55383e-18
600.000,5.48620e-18
602.000,5.41958e-18
604.000,5.35397e-18
606.000,5.28932e-18
608.000,5.22563e-18
610.000,5.16289e-18
612.000,5.10107e-18
614.000,5.04012e-18
616.000,4.98006e-18
618.000,4.92083e-18
620.000,4.86244e-18
622.000,4.80483e-18
624.000,4.74799e-18
626.000,4.69187e-18
628.000,4.63645e-18
630.000,4.58163e-18
632.000,4.52736e-18
634.000,4.47353e-18
636.000,4.41998e-18
638.000,4.36648e-18
640.000,4.31266e-18
642.000,4.25785e-18
644.000,4.20091e-18
646.000,4.13960e-18
648.000,4.06925e-18
650.000,3.97919e-18
652.000,3.84319e-18
654.000,3.59281e-18
656.000,3.10535e-18
658.000,3.35461e-18
660.000,3.61559e-18
662.000,3.69778e-18
664.000,3.71137e-18
666.000,3.69707e-18
668.000,3.67067e-18
670.000,3.63861e-18
672.000,3.60387e-18
674.000,3.56781e-18
676.000,3.53118e-18
678.000,3.49439e-18
680.000,3.45766e-18
682.000,3.42114e-18
684.000,3.38492e-18
686.000,3.34903e-18
688.000,3.31397e-18
690.000,3.27928e-18
692.000,3.24457e-18
694.000,3.21028e-18
696.000,3.17641e-18
698.000,3.14296e-18
700.000,3.10796e-18
702.000,3.07342e-18
704.000,3.04133e-18
706.000,3.00936e-18
708.000,2.97821e-18
710.000,2.94729e-18
712.000,2.91676e-18
714.000,2.88651e-18
716.000,2.85666e-18
718.000,2.82735e-18
720.000,2.79833e-18
722.000,2.76974e-18
724.000,2.74141e-18
726.000,2.71359e-18
728.000,2.68619e-18
730.000,2.65875e-18
732.000,2.63178e-18
734.000,2.60511e-18
736.000,2.57889e-18
738.000,2.55322e-18
740.000,2.52774e-18
742.000,2.50236e-18
744.000,2.47743e-18
746.000,2.45300e-18
748.000,2.42853e-18
750.000,2.40434e-18
752.000,2.38082e-18
754.000,2.35736e-18
756.000,2.33423e-18
758.000,2.31146e-18
760.000,2.28875e-18
762.000,2.26657e-18
764.000,2.24439e-18
766.000,2.22254e-18
768.000,2.20095e-18
770.000,2.17990e-18
772.000,2.15886e-18
774.000,2.13810e-18
776.000,2.11758e-18
778.000,2.09735e-18
780.000,2.07739e-18
782.000,2.05757e-18
784.000,2.03810e-18
786.000,2.01862e-18
788.000,1.99971e-18
790.000,1.98072e-18
792.000,1.96220e-18
794.000,1.94367e-18
796.000,1.92556e-18
798.000,1.90760e-18
800.000,1.88981e-18
802.000,1.87229e-18
804.000,1.85472e-18
806.000,1.83768e-18
808.000,1.82069e-18
810.000,1.80392e-18
812.000,1.78734e-18
814.000,1.77093e-18
816.000,1.75471e-18
818.000,1.73869e-18
820.000,1.72287e-18
822.000,1.70719e-18
824.000,1.69170e-18
826.000,1.67640e-18
828.000,1.66120e-18
830.000,1.64563e-18
832.000,1.63076e-18
834.000,1.61610e-18
836.000,1.60158e-18
838.000,1.58722e-18
840.000,1.57305e-18
842.000,1.55897e-18
844.000,1.54507e-18
846.000,1.53131e-18
848.000,1.51770e-18
850.000,1.50425e-18
852.000,1.49097e-18
854.000,1.47780e-18
856.000,1.46480e-18
858.000,1.45191e-18
860.000,1.43923e-18
862.000,1.42667e-18
864.000,1.41428e-18
866.000,1.40203e-18
868.000,1.38998e-18
870.000,1.37805e-18
872.000,1.36622e-18
874.000,1.35455e-18
876.000,1.34313e-18
878.000,1.33186e-18
880.000,1.32062e-18
882.000,1.30939e-18
884.000,1.29808e-18
886.000,1.28725e-18
888.000,1.27677e-18
890.000,1.26670e-18
892.000,1.25660e-18
894.000,1.24614e-18
896.000,1.23526e-18
898.000,1.22405e-18
900.000,1.21318e-18
902.000,1.20336e-18
904.000,1.19447e-18
906.000,1.18629e-18
908.000,1.17786e-18
910.000,1.16882e-18
912.000,1.15917e-18
914.000,1.14878e-18
916.000,1.13759e-18
918.000,1.12554e-18
920.000,1.11310e-18
922.000,1.10202e-18
924.000,1.09363e-18
926.000,1.08790e-18
928.000,1.08309e-18
930.000,1.07770e-18
932.000,1.07143e-18
934.000,1.06435e-18
936.000,1.05667e-18
938.000,1.04838e-18
940.000,1.03953e-18
942.000,1.03005e-18
944.000,1.01985e-18
946.000,1.00879e-18
948.000,9.96506e-19
950.000,9.82898e-19
952.000,9.68703e-19
954.000,9.57217e-19
956.000,9.50987e-19
958.000,9.49477e-19
960.000,9.48643e-19
962.000,9.46594e-19
964.000,9.43182e-19
966.000,9.38758e-19
968.000,9.33530e-19
970.000,9.27758e-19
972.000,9.21652e-19
974.000,9.15192e-19
976.000,9.08530e-19
978.000,9.01647e-19
980.000,8.94614e-19
982.000,8.87405e-19
984.000,8.79960e-19
986.000,8.72278e-19
988.000,8.64251e-19
990.000,8.55771e-19
992.000,8.46690e-19
994.000,8.36739e-19
996.000,8.25567e-19
998.000,8.12637e-19
1000.00,7.97292e-19
1002.00,7.79479e-19
1004.00,7.63381e-19
1006.00,7.58281e-19
1008.00,7.63466e-19
1010.00,7.69292e-19
1012.00,7.72238e-19
1014.00,7.72708e-19
1016.00,7.71377e-19
1018.00,7.68824e-19
1020.00,7.65413e-19
