wave,flux,fluxerr
1350.5642,9.0136095e-15,0.0000000
1351.5643,8.9970270e-15,0.0000000
1352.5644,8.9804125e-15,0.0000000
1353.5644,8.9625198e-15,0.0000000
1354.5645,8.9423279e-15,0.0000000
1355.5646,8.9247015e-15,0.0000000
1356.5647,8.9079473e-15,0.0000000
1357.5648,8.8897855e-15,0.0000000
1358.5648,8.8710655e-15,0.0000000
1359.5649,8.8541952e-15,0.0000000
1360.5650,8.8371108e-15,0.0000000
1361.5651,8.8191578e-15,0.0000000
1362.5652,8.7997366e-15,0.0000000
1363.5652,8.7835135e-15,0.0000000
1364.5653,8.7643107e-15,0.0000000
1365.5654,8.7464868e-15,0.0000000
1366.5655,8.7305472e-15,0.0000000
1367.5656,8.7123782e-15,0.0000000
1368.5657,8.6955716e-15,0.0000000
1369.5657,8.6760070e-15,0.0000000
1370.5658,8.6593616e-15,0.0000000
1371.5659,8.6410599e-15,0.0000000
1372.5660,8.6251141e-15,0.0000000
1373.5661,8.6077425e-15,0.0000000
1374.5662,8.5903365e-15,0.0000000
1375.5663,8.5729218e-15,0.0000000
1376.5663,8.5564450e-15,0.0000000
1377.5664,8.5379489e-15,0.0000000
1378.5665,8.5211978e-15,0.0000000
1379.5666,8.5039621e-15,0.0000000
1380.5667,8.4857100e-15,0.0000000
1381.5668,8.4699658e-15,0.0000000
1382.5669,8.4531126e-15,0.0000000
1383.5670,8.4338805e-15,0.0000000
1384.5671,8.4172241e-15,0.0000000
1385.5671,8.3995417e-15,0.0000000
1386.5672,8.3831618e-15,0.0000000
1387.5673,8.3666027e-15,0.0000000
1388.5674,8.3498124e-15,0.0000000
1389.5675,8.3328794e-15,0.0000000
1390.5676,8.3164339e-15,0.0000000
1391.5677,8.2994397e-15,0.0000000
1392.5678,8.2829103e-15,0.0000000
1393.5679,8.2655006e-15,0.0000000
1394.5680,8.2493163e-15,0.0000000
1395.5681,8.2320418e-15,0.0000000
1396.5682,8.2160241e-15,0.0000000
1397.5683,8.1987449e-15,0.0000000
1398.5684,8.1826435e-15,0.0000000
1399.5685,8.1653494e-15,0.0000000
1400.5686,8.1492427e-15,0.0000000
1401.5687,8.1327008e-15,0.0000000
1402.5688,8.1160479e-15,0.0000000
1403.5689,8.0992215e-15,0.0000000
1404.5690,8.0828411e-15,0.0000000
1405.5691,8.0659339e-15,0.0000000
1406.5692,8.0497012e-15,0.0000000
1407.5693,8.0337211e-15,0.0000000
1408.5694,8.0173928e-15,0.0000000
1409.5695,8.0011042e-15,0.0000000
1410.5696,7.9849597e-15,0.0000000
1411.5697,7.9687327e-15,0.0000000
1412.5698,7.9524285e-15,0.0000000
1413.5699,7.9362494e-15,0.0000000
1414.5700,7.9202297e-15,0.0000000
1415.5701,7.9041117e-15,0.0000000
1416.5702,7.8881730e-15,0.0000000
1417.5703,7.8719431e-15,0.0000000
1418.5704,7.8559253e-15,0.0000000
1419.5705,7.8400253e-15,0.0000000
1420.5706,7.8240652e-15,0.0000000
1421.5707,7.8080760e-15,0.0000000
1422.5708,7.7922357e-15,0.0000000
1423.5709,7.7762658e-15,0.0000000
1424.5711,7.7605672e-15,0.0000000
1425.5712,7.7448351e-15,0.0000000
1426.5713,7.7289644e-15,0.0000000
1427.5714,7.7130887e-15,0.0000000
1428.5715,7.6975851e-15,0.0000000
1429.5716,7.6818585e-15,0.0000000
1430.5717,7.6662177e-15,0.0000000
1431.5718,7.6506744e-15,0.0000000
1432.5719,7.6348494e-15,0.0000000
1433.5720,7.6194915e-15,0.0000000
1434.5722,7.6039599e-15,0.0000000
1435.5723,7.5884852e-15,0.0000000
1436.5724,7.5729918e-15,0.0000000
1437.5725,7.5577863e-15,0.0000000
1438.5726,7.5422699e-15,0.0000000
1439.5727,7.5269283e-15,0.0000000
1440.5728,7.5115152e-15,0.0000000
1441.5729,7.4963961e-15,0.0000000
1442.5731,7.4810212e-15,0.0000000
1443.5732,7.4657800e-15,0.0000000
1444.5733,7.4505559e-15,0.0000000
1445.5734,7.4353489e-15,0.0000000
1446.5735,7.4201140e-15,0.0000000
1447.5736,7.4049839e-15,0.0000000
1448.5738,7.3900566e-15,0.0000000
1449.5739,7.3747937e-15,0.0000000
1450.5740,7.3598331e-15,0.0000000
1451.5741,7.3449222e-15,0.0000000
1452.5742,7.3299122e-15,0.0000000
1453.5743,7.3151366e-15,0.0000000
1454.5745,7.3000856e-15,0.0000000
1455.5746,7.2851832e-15,0.0000000
1456.5747,7.2700905e-15,0.0000000
1457.5748,7.2556799e-15,0.0000000
1458.5749,7.2405967e-15,0.0000000
1459.5751,7.2259475e-15,0.0000000
1460.5752,7.2112217e-15,0.0000000
1461.5753,7.1965944e-15,0.0000000
1462.5754,7.1817773e-15,0.0000000
1463.5756,7.1671095e-15,0.0000000
1464.5757,7.1527606e-15,0.0000000
1465.5758,7.1380248e-15,0.0000000
1466.5759,7.1232896e-15,0.0000000
1467.5760,7.1087518e-15,0.0000000
1468.5762,7.0943263e-15,0.0000000
1469.5763,7.0799562e-15,0.0000000
1470.5764,7.0654142e-15,0.0000000
1471.5765,7.0510199e-15,0.0000000
1472.5767,7.0366602e-15,0.0000000
1473.5768,7.0224251e-15,0.0000000
1474.5769,7.0078935e-15,0.0000000
1475.5770,6.9935742e-15,0.0000000
1476.5772,6.9794369e-15,0.0000000
1477.5773,6.9652802e-15,0.0000000
1478.5774,6.9510658e-15,0.0000000
1479.5776,6.9369384e-15,0.0000000
1480.5777,6.9226617e-15,0.0000000
1481.5778,6.9084135e-15,0.0000000
1482.5779,6.8945384e-15,0.0000000
1483.5781,6.8803543e-15,0.0000000
1484.5782,6.8664552e-15,0.0000000
1485.5783,6.8521553e-15,0.0000000
1486.5785,6.8384552e-15,0.0000000
1487.5786,6.8243989e-15,0.0000000
1488.5787,6.8106834e-15,0.0000000
1489.5788,6.7966117e-15,0.0000000
1490.5790,6.7828489e-15,0.0000000
1491.5791,6.7689818e-15,0.0000000
1492.5792,6.7549542e-15,0.0000000
1493.5794,6.7414032e-15,0.0000000
1494.5795,6.7275864e-15,0.0000000
1495.5796,6.7140124e-15,0.0000000
1496.5798,6.7001051e-15,0.0000000
1497.5799,6.6865414e-15,0.0000000
1498.5800,6.6729071e-15,0.0000000
1499.5802,6.6592653e-15,0.0000000
1500.5803,6.6456117e-15,0.0000000
1501.5804,6.6319549e-15,0.0000000
1502.5806,6.6185537e-15,0.0000000
1503.5807,6.6050681e-15,0.0000000
1504.5809,6.5915531e-15,0.0000000
1505.5810,6.5781217e-15,0.0000000
1506.5811,6.5648472e-15,0.0000000
1507.5813,6.5513440e-15,0.0000000
1508.5814,6.5379691e-15,0.0000000
1509.5815,6.5247693e-15,0.0000000
1510.5817,6.5113525e-15,0.0000000
1511.5818,6.4981712e-15,0.0000000
1512.5819,6.4848523e-15,0.0000000
1513.5821,6.4717632e-15,0.0000000
1514.5822,6.4583754e-15,0.0000000
1515.5824,6.4453139e-15,0.0000000
1516.5825,6.4320890e-15,0.0000000
1517.5826,6.4189522e-15,0.0000000
1518.5828,6.4059406e-15,0.0000000
1519.5829,6.3929642e-15,0.0000000
1520.5831,6.3799819e-15,0.0000000
1521.5832,6.3670156e-15,0.0000000
1522.5833,6.3537562e-15,0.0000000
1523.5835,6.3409708e-15,0.0000000
1524.5836,6.3282749e-15,0.0000000
1525.5838,6.3148964e-15,0.0000000
1526.5839,6.3022055e-15,0.0000000
1527.5841,6.2894075e-15,0.0000000
1528.5842,6.2766595e-15,0.0000000
1529.5843,6.2638865e-15,0.0000000
1530.5845,6.2508683e-15,0.0000000
1531.5846,6.2382379e-15,0.0000000
1532.5848,6.2256871e-15,0.0000000
1533.5849,6.2130371e-15,0.0000000
1534.5851,6.2003536e-15,0.0000000
1535.5852,6.1875465e-15,0.0000000
1536.5854,6.1748486e-15,0.0000000
1537.5855,6.1624848e-15,0.0000000
1538.5856,6.1498876e-15,0.0000000
1539.5858,6.1373684e-15,0.0000000
1540.5859,6.1247579e-15,0.0000000
1541.5861,6.1124484e-15,0.0000000
1542.5862,6.0998273e-15,0.0000000
1543.5864,6.0875200e-15,0.0000000
1544.5865,6.0750358e-15,0.0000000
1545.5867,6.0625179e-15,0.0000000
1546.5868,6.0504335e-15,0.0000000
1547.5870,6.0380797e-15,0.0000000
1548.5871,6.0256555e-15,0.0000000
1549.5873,6.0134131e-15,0.0000000
1550.5874,6.0012457e-15,0.0000000
1551.5876,5.9888836e-15,0.0000000
1552.5877,5.9767777e-15,0.0000000
1553.5879,5.9645493e-15,0.0000000
1554.5880,5.9523707e-15,0.0000000
1555.5882,5.9403477e-15,0.0000000
1556.5883,5.9281491e-15,0.0000000
1557.5885,5.9161439e-15,0.0000000
1558.5886,5.9041048e-15,0.0000000
1559.5888,5.8921008e-15,0.0000000
1560.5889,5.8801844e-15,0.0000000
1561.5891,5.8682430e-15,0.0000000
1562.5892,5.8562449e-15,0.0000000
1563.5894,5.8443147e-15,0.0000000
1564.5895,5.8323800e-15,0.0000000
1565.5897,5.8207417e-15,0.0000000
1566.5898,5.8087494e-15,0.0000000
1567.5900,5.7967528e-15,0.0000000
1568.5901,5.7851126e-15,0.0000000
1569.5903,5.7733710e-15,0.0000000
1570.5904,5.7614706e-15,0.0000000
1571.5906,5.7498607e-15,0.0000000
1572.5908,5.7380395e-15,0.0000000
1573.5909,5.7266117e-15,0.0000000
1574.5911,5.7148123e-15,0.0000000
1575.5912,5.7033211e-15,0.0000000
1576.5914,5.6915670e-15,0.0000000
1577.5915,5.6798940e-15,0.0000000
1578.5917,5.6684814e-15,0.0000000
1579.5918,5.6569603e-15,0.0000000
1580.5920,5.6455768e-15,0.0000000
1581.5922,5.6338780e-15,0.0000000
1582.5923,5.6224619e-15,0.0000000
1583.5925,5.6111625e-15,0.0000000
1584.5926,5.5995120e-15,0.0000000
1585.5928,5.5882691e-15,0.0000000
1586.5930,5.5768947e-15,0.0000000
1587.5931,5.5657142e-15,0.0000000
1588.5933,5.5542484e-15,0.0000000
1589.5934,5.5429157e-15,0.0000000
1590.5936,5.5316124e-15,0.0000000
1591.5937,5.5203154e-15,0.0000000
1592.5939,5.5093152e-15,0.0000000
1593.5941,5.4979768e-15,0.0000000
1594.5942,5.4867832e-15,0.0000000
1595.5944,5.4757522e-15,0.0000000
1596.5945,5.4646204e-15,0.0000000
1597.5947,5.4534200e-15,0.0000000
1598.5949,5.4424403e-15,0.0000000
1599.5950,5.4314666e-15,0.0000000
1600.5952,5.4204115e-15,0.0000000
1601.5954,5.4093210e-15,0.0000000
1602.5955,5.3983373e-15,0.0000000
1603.5957,5.3874115e-15,0.0000000
1604.5958,5.3764234e-15,0.0000000
1605.5960,5.3656891e-15,0.0000000
1606.5962,5.3547064e-15,0.0000000
1607.5963,5.3435359e-15,0.0000000
1608.5965,5.3329392e-15,0.0000000
1609.5967,5.3221816e-15,0.0000000
1610.5968,5.3111845e-15,0.0000000
1611.5970,5.3003624e-15,0.0000000
1612.5971,5.2896872e-15,0.0000000
1613.5973,5.2787637e-15,0.0000000
1614.5975,5.2683541e-15,0.0000000
1615.5976,5.2573481e-15,0.0000000
1616.5978,5.2468700e-15,0.0000000
1617.5980,5.2361118e-15,0.0000000
1618.5981,5.2255870e-15,0.0000000
1619.5983,5.2150605e-15,0.0000000
1620.5985,5.2042678e-15,0.0000000
1621.5986,5.1938638e-15,0.0000000
1622.5988,5.1834505e-15,0.0000000
1623.5990,5.1725780e-15,0.0000000
1624.5991,5.1620681e-15,0.0000000
1625.5993,5.1516324e-15,0.0000000
1626.5995,5.1412110e-15,0.0000000
1627.5996,5.1309287e-15,0.0000000
1628.5998,5.1206151e-15,0.0000000
1629.6000,5.1101370e-15,0.0000000
1630.6001,5.0998392e-15,0.0000000
1631.6003,5.0893562e-15,0.0000000
1632.6005,5.0790294e-15,0.0000000
1633.6007,5.0687077e-15,0.0000000
1634.6008,5.0584512e-15,0.0000000
1635.6010,5.0481857e-15,0.0000000
1636.6012,5.0379300e-15,0.0000000
1637.6013,5.0278213e-15,0.0000000
1638.6015,5.0175421e-15,0.0000000
1639.6017,5.0074204e-15,0.0000000
1640.6018,4.9972909e-15,0.0000000
1641.6020,4.9869956e-15,0.0000000
1642.6022,4.9770141e-15,0.0000000
1643.6024,4.9666850e-15,0.0000000
1644.6025,4.9567089e-15,0.0000000
1645.6027,4.9466302e-15,0.0000000
1646.6029,4.9366399e-15,0.0000000
1647.6030,4.9265419e-15,0.0000000
1648.6032,4.9165383e-15,0.0000000
1649.6034,4.9067809e-15,0.0000000
1650.6036,4.8965705e-15,0.0000000
1651.6037,4.8866370e-15,0.0000000
1652.6039,4.8768705e-15,0.0000000
1653.6041,4.8669071e-15,0.0000000
1654.6043,4.8569502e-15,0.0000000
1655.6044,4.8471476e-15,0.0000000
1656.6046,4.8373532e-15,0.0000000
1657.6048,4.8275371e-15,0.0000000
1658.6049,4.8177256e-15,0.0000000
1659.6051,4.8079865e-15,0.0000000
1660.6053,4.7981526e-15,0.0000000
1661.6055,4.7885015e-15,0.0000000
1662.6056,4.7789254e-15,0.0000000
1663.6058,4.7691253e-15,0.0000000
1664.6060,4.7592987e-15,0.0000000
1665.6062,4.7497988e-15,0.0000000
1666.6064,4.7401975e-15,0.0000000
1667.6065,4.7305825e-15,0.0000000
1668.6067,4.7208894e-15,0.0000000
1669.6069,4.7111742e-15,0.0000000
1670.6071,4.7015412e-15,0.0000000
1671.6072,4.6920650e-15,0.0000000
1672.6074,4.6826128e-15,0.0000000
1673.6076,4.6729589e-15,0.0000000
1674.6078,4.6635412e-15,0.0000000
1675.6079,4.6544769e-15,0.0000000
1676.6081,4.6450553e-15,0.0000000
1677.6083,4.6353592e-15,0.0000000
1678.6085,4.6258640e-15,0.0000000
1679.6087,4.6165984e-15,0.0000000
1680.6088,4.6071754e-15,0.0000000
1681.6090,4.5976968e-15,0.0000000
1682.6092,4.5885651e-15,0.0000000
1683.6094,4.5791056e-15,0.0000000
1684.6095,4.5698138e-15,0.0000000
1685.6097,4.5606919e-15,0.0000000
1686.6099,4.5513528e-15,0.0000000
1687.6101,4.5422753e-15,0.0000000
1688.6103,4.5329338e-15,0.0000000
1689.6104,4.5238204e-15,0.0000000
1690.6106,4.5145204e-15,0.0000000
1691.6108,4.5053237e-15,0.0000000
1692.6110,4.4962022e-15,0.0000000
1693.6112,4.4872346e-15,0.0000000
1694.6114,4.4779400e-15,0.0000000
1695.6115,4.4688777e-15,0.0000000
1696.6117,4.4599092e-15,0.0000000
1697.6119,4.4507612e-15,0.0000000
1698.6121,4.4417862e-15,0.0000000
1699.6123,4.4327598e-15,0.0000000
1700.6124,4.4237943e-15,0.0000000
1701.6126,4.4148130e-15,0.0000000
1702.6128,4.4058402e-15,0.0000000
1703.6130,4.3970884e-15,0.0000000
1704.6132,4.3881406e-15,0.0000000
1705.6134,4.3791553e-15,0.0000000
1706.6135,4.3703112e-15,0.0000000
1707.6137,4.3614322e-15,0.0000000
1708.6139,4.3524335e-15,0.0000000
1709.6141,4.3435793e-15,0.0000000
1710.6143,4.3347735e-15,0.0000000
1711.6145,4.3262823e-15,0.0000000
1712.6146,4.3175085e-15,0.0000000
1713.6148,4.3087349e-15,0.0000000
1714.6150,4.2998201e-15,0.0000000
1715.6152,4.2911703e-15,0.0000000
1716.6154,4.2824299e-15,0.0000000
1717.6156,4.2739299e-15,0.0000000
1718.6158,4.2653309e-15,0.0000000
1719.6159,4.2562866e-15,0.0000000
1720.6161,4.2478904e-15,0.0000000
1721.6163,4.2390887e-15,0.0000000
1722.6165,4.2306203e-15,0.0000000
1723.6167,4.2221115e-15,0.0000000
1724.6169,4.2134905e-15,0.0000000
1725.6171,4.2050095e-15,0.0000000
1726.6172,4.1965260e-15,0.0000000
1727.6174,4.1879511e-15,0.0000000
1728.6176,4.1794262e-15,0.0000000
1729.6178,4.1710155e-15,0.0000000
1730.6180,4.1623719e-15,0.0000000
1731.6182,4.1541018e-15,0.0000000
1732.6184,4.1457714e-15,0.0000000
1733.6186,4.1374532e-15,0.0000000
1734.6187,4.1290838e-15,0.0000000
1735.6189,4.1206590e-15,0.0000000
1736.6191,4.1122609e-15,0.0000000
1737.6193,4.1041215e-15,0.0000000
1738.6195,4.0957367e-15,0.0000000
1739.6197,4.0874068e-15,0.0000000
1740.6199,4.0792971e-15,0.0000000
1741.6201,4.0708897e-15,0.0000000
1742.6203,4.0626150e-15,0.0000000
1743.6204,4.0544872e-15,0.0000000
1744.6206,4.0461430e-15,0.0000000
1745.6208,4.0380401e-15,0.0000000
1746.6210,4.0299336e-15,0.0000000
1747.6212,4.0218133e-15,0.0000000
1748.6214,4.0136951e-15,0.0000000
1749.6216,4.0055594e-15,0.0000000
1750.6218,3.9974222e-15,0.0000000
1751.6220,3.9892776e-15,0.0000000
1752.6222,3.9811327e-15,0.0000000
1753.6224,3.9732377e-15,0.0000000
1754.6225,3.9650921e-15,0.0000000
1755.6227,3.9569839e-15,0.0000000
1756.6229,3.9490102e-15,0.0000000
1757.6231,3.9410305e-15,0.0000000
1758.6233,3.9330500e-15,0.0000000
1759.6235,3.9250641e-15,0.0000000
1760.6237,3.9173373e-15,0.0000000
1761.6239,3.9092574e-15,0.0000000
1762.6241,3.9013616e-15,0.0000000
1763.6243,3.8935870e-15,0.0000000
1764.6245,3.8853736e-15,0.0000000
1765.6247,3.8777086e-15,0.0000000
1766.6249,3.8699976e-15,0.0000000
1767.6251,3.8620173e-15,0.0000000
1768.6252,3.8539326e-15,0.0000000
1769.6254,3.8463280e-15,0.0000000
1770.6256,3.8386776e-15,0.0000000
1771.6258,3.8308704e-15,0.0000000
1772.6260,3.8230864e-15,0.0000000
1773.6262,3.8150624e-15,0.0000000
1774.6264,3.8073780e-15,0.0000000
1775.6266,3.7997702e-15,0.0000000
1776.6268,3.7919846e-15,0.0000000
1777.6270,3.7844631e-15,0.0000000
1778.6272,3.7767510e-15,0.0000000
1779.6274,3.7691410e-15,0.0000000
1780.6276,3.7614746e-15,0.0000000
1781.6278,3.7538049e-15,0.0000000
1782.6280,3.7461297e-15,0.0000000
1783.6282,3.7384544e-15,0.0000000
1784.6284,3.7309449e-15,0.0000000
1785.6286,3.7234412e-15,0.0000000
1786.6288,3.7159381e-15,0.0000000
1787.6290,3.7085490e-15,0.0000000
1788.6291,3.7008863e-15,0.0000000
1789.6293,3.6933605e-15,0.0000000
1790.6295,3.6856574e-15,0.0000000
1791.6297,3.6783451e-15,0.0000000
1792.6299,3.6709427e-15,0.0000000
1793.6301,3.6634013e-15,0.0000000
1794.6303,3.6560054e-15,0.0000000
1795.6305,3.6485783e-15,0.0000000
1796.6307,3.6412910e-15,0.0000000
1797.6309,3.6338087e-15,0.0000000
1798.6311,3.6262553e-15,0.0000000
1799.6313,3.6188659e-15,0.0000000
1800.6315,3.6117293e-15,0.0000000
1801.6317,3.6043334e-15,0.0000000
1802.6319,3.5968479e-15,0.0000000
1803.6321,3.5894410e-15,0.0000000
1804.6323,3.5822941e-15,0.0000000
1805.6325,3.5749982e-15,0.0000000
1806.6327,3.5677360e-15,0.0000000
1807.6329,3.5605281e-15,0.0000000
1808.6331,3.5534176e-15,0.0000000
1809.6333,3.5459940e-15,0.0000000
1810.6335,3.5386672e-15,0.0000000
1811.6337,3.5314827e-15,0.0000000
1812.6339,3.5241281e-15,0.0000000
1813.6341,3.5171345e-15,0.0000000
1814.6343,3.5098581e-15,0.0000000
1815.6345,3.5029346e-15,0.0000000
1816.6347,3.4955161e-15,0.0000000
1817.6349,3.4885576e-15,0.0000000
1818.6351,3.4812315e-15,0.0000000
1819.6353,3.4743364e-15,0.0000000
1820.6355,3.4673494e-15,0.0000000
1821.6357,3.4599274e-15,0.0000000
1822.6359,3.4531503e-15,0.0000000
1823.6361,3.4456822e-15,0.0000000
1824.6363,3.4389012e-15,0.0000000
1825.6365,3.4319407e-15,0.0000000
1826.6367,3.4246804e-15,0.0000000
1827.6369,3.4178389e-15,0.0000000
1828.6371,3.4108675e-15,0.0000000
1829.6373,3.4039272e-15,0.0000000
1830.6375,3.3967457e-15,0.0000000
1831.6377,3.3897672e-15,0.0000000
1832.6379,3.3830071e-15,0.0000000
1833.6381,3.3761398e-15,0.0000000
1834.6383,3.3690738e-15,0.0000000
1835.6386,3.3621891e-15,0.0000000
1836.6388,3.3550487e-15,0.0000000
1837.6390,3.3483349e-15,0.0000000
1838.6392,3.3413316e-15,0.0000000
1839.6394,3.3346734e-15,0.0000000
1840.6396,3.3276587e-15,0.0000000
1841.6398,3.3210911e-15,0.0000000
1842.6400,3.3140295e-15,0.0000000
1843.6402,3.3073937e-15,0.0000000
1844.6404,3.3004686e-15,0.0000000
1845.6406,3.2936844e-15,0.0000000
1846.6408,3.2869694e-15,0.0000000
1847.6410,3.2801113e-15,0.0000000
1848.6412,3.2733157e-15,0.0000000
1849.6414,3.2666137e-15,0.0000000
1850.6416,3.2599747e-15,0.0000000
1851.6418,3.2531746e-15,0.0000000
1852.6420,3.2463634e-15,0.0000000
1853.6422,3.2398004e-15,0.0000000
1854.6424,3.2331421e-15,0.0000000
1855.6426,3.2263519e-15,0.0000000
1856.6428,3.2197756e-15,0.0000000
1857.6431,3.2130921e-15,0.0000000
1858.6433,3.2063718e-15,0.0000000
1859.6435,3.1997466e-15,0.0000000
1860.6437,3.1931165e-15,0.0000000
1861.6439,3.1865482e-15,0.0000000
1862.6441,3.1796905e-15,0.0000000
1863.6443,3.1732507e-15,0.0000000
1864.6445,3.1668357e-15,0.0000000
1865.6447,3.1602936e-15,0.0000000
1866.6449,3.1536858e-15,0.0000000
1867.6451,3.1469788e-15,0.0000000
1868.6453,3.1405348e-15,0.0000000
1869.6455,3.1339327e-15,0.0000000
1870.6457,3.1276506e-15,0.0000000
1871.6460,3.1209385e-15,0.0000000
1872.6462,3.1144642e-15,0.0000000
1873.6464,3.1081192e-15,0.0000000
1874.6466,3.1015931e-15,0.0000000
1875.6468,3.0949257e-15,0.0000000
1876.6470,3.0887230e-15,0.0000000
1877.6472,3.0821495e-15,0.0000000
1878.6474,3.0754945e-15,0.0000000
1879.6476,3.0692949e-15,0.0000000
1880.6478,3.0628152e-15,0.0000000
1881.6480,3.0562383e-15,0.0000000
1882.6482,3.0500494e-15,0.0000000
1883.6485,3.0436378e-15,0.0000000
1884.6487,3.0374316e-15,0.0000000
1885.6489,3.0308159e-15,0.0000000
1886.6491,3.0244439e-15,0.0000000
1887.6493,3.0182807e-15,0.0000000
1888.6495,3.0118557e-15,0.0000000
1889.6497,3.0056040e-15,0.0000000
1890.6499,2.9993387e-15,0.0000000
1891.6501,2.9929298e-15,0.0000000
1892.6503,2.9866081e-15,0.0000000
1893.6506,2.9804670e-15,0.0000000
1894.6508,2.9740296e-15,0.0000000
1895.6510,2.9679590e-15,0.0000000
1896.6512,2.9617043e-15,0.0000000
1897.6514,2.9552898e-15,0.0000000
1898.6516,2.9490256e-15,0.0000000
1899.6518,2.9428924e-15,0.0000000
1900.6520,2.9365586e-15,0.0000000
1901.6522,2.9304848e-15,0.0000000
1902.6525,2.9242518e-15,0.0000000
1903.6527,2.9181225e-15,0.0000000
1904.6529,2.9118858e-15,0.0000000
1905.6531,2.9056468e-15,0.0000000
1906.6533,2.8995575e-15,0.0000000
1907.6535,2.8934357e-15,0.0000000
1908.6537,2.8872838e-15,0.0000000
1909.6539,2.8812117e-15,0.0000000
1910.6541,2.8749925e-15,0.0000000
1911.6544,2.8688948e-15,0.0000000
1912.6546,2.8627220e-15,0.0000000
1913.6548,2.8567094e-15,0.0000000
1914.6550,2.8505462e-15,0.0000000
1915.6552,2.8445404e-15,0.0000000
1916.6554,2.8384716e-15,0.0000000
1917.6556,2.8324369e-15,0.0000000
1918.6558,2.8264587e-15,0.0000000
1919.6561,2.8202723e-15,0.0000000
1920.6563,2.8143506e-15,0.0000000
1921.6565,2.8082781e-15,0.0000000
1922.6567,2.8024630e-15,0.0000000
1923.6569,2.7963095e-15,0.0000000
1924.6571,2.7902844e-15,0.0000000
1925.6573,2.7843599e-15,0.0000000
1926.6576,2.7785274e-15,0.0000000
1927.6578,2.7723144e-15,0.0000000
1928.6580,2.7664838e-15,0.0000000
1929.6582,2.7605578e-15,0.0000000
1930.6584,2.7545029e-15,0.0000000
1931.6586,2.7484574e-15,0.0000000
1932.6588,2.7428431e-15,0.0000000
1933.6591,2.7368106e-15,0.0000000
1934.6593,2.7308610e-15,0.0000000
1935.6595,2.7248112e-15,0.0000000
1936.6597,2.7191901e-15,0.0000000
