wave,flux,fluxerr
1350.5642,1.7381200e-14,0.0000000
1351.5643,1.7343969e-14,0.0000000
1352.5644,1.7306707e-14,0.0000000
1353.5644,1.7269493e-14,0.0000000
1354.5645,1.7232146e-14,0.0000000
1355.5646,1.7194775e-14,0.0000000
1356.5647,1.7159113e-14,0.0000000
1357.5648,1.7122155e-14,0.0000000
1358.5648,1.7084706e-14,0.0000000
1359.5649,1.7052131e-14,0.0000000
1360.5650,1.7021779e-14,0.0000000
1361.5651,1.6984416e-14,0.0000000
1362.5652,1.6945553e-14,0.0000000
1363.5652,1.6910473e-14,0.0000000
1364.5653,1.6875180e-14,0.0000000
1365.5654,1.6838829e-14,0.0000000
1366.5655,1.6803749e-14,0.0000000
1367.5656,1.6768609e-14,0.0000000
1368.5657,1.6733461e-14,0.0000000
1369.5657,1.6698197e-14,0.0000000
1370.5658,1.6662948e-14,0.0000000
1371.5659,1.6627627e-14,0.0000000
1372.5660,1.6593503e-14,0.0000000
1373.5661,1.6558263e-14,0.0000000
1374.5662,1.6523284e-14,0.0000000
1375.5663,1.6488792e-14,0.0000000
1376.5663,1.6453606e-14,0.0000000
1377.5664,1.6419569e-14,0.0000000
1378.5665,1.6384961e-14,0.0000000
1379.5666,1.6350182e-14,0.0000000
1380.5667,1.6315821e-14,0.0000000
1381.5668,1.6281697e-14,0.0000000
1382.5669,1.6247473e-14,0.0000000
1383.5670,1.6212888e-14,0.0000000
1384.5671,1.6178830e-14,0.0000000
1385.5671,1.6145247e-14,0.0000000
1386.5672,1.6110552e-14,0.0000000
1387.5673,1.6077055e-14,0.0000000
1388.5674,1.6043482e-14,0.0000000
1389.5675,1.6009318e-14,0.0000000
1390.5676,1.5976498e-14,0.0000000
1391.5677,1.5942266e-14,0.0000000
1392.5678,1.5909291e-14,0.0000000
1393.5679,1.5874997e-14,0.0000000
1394.5680,1.5842113e-14,0.0000000
1395.5681,1.5809148e-14,0.0000000
1396.5682,1.5776111e-14,0.0000000
1397.5683,1.5742263e-14,0.0000000
1398.5684,1.5708598e-14,0.0000000
1399.5685,1.5675768e-14,0.0000000
1400.5686,1.5642746e-14,0.0000000
1401.5687,1.5610152e-14,0.0000000
1402.5688,1.5577747e-14,0.0000000
1403.5689,1.5544605e-14,0.0000000
1404.5690,1.5511680e-14,0.0000000
1405.5691,1.5479717e-14,0.0000000
1406.5692,1.5446383e-14,0.0000000
1407.5693,1.5414649e-14,0.0000000
1408.5694,1.5381618e-14,0.0000000
1409.5695,1.5349471e-14,0.0000000
1410.5696,1.5317638e-14,0.0000000
1411.5697,1.5285811e-14,0.0000000
1412.5698,1.5252686e-14,0.0000000
1413.5699,1.5220722e-14,0.0000000
1414.5700,1.5188741e-14,0.0000000
1415.5701,1.5156772e-14,0.0000000
1416.5702,1.5125725e-14,0.0000000
1417.5703,1.5093293e-14,0.0000000
1418.5704,1.5061913e-14,0.0000000
1419.5705,1.5030629e-14,0.0000000
1420.5706,1.4999307e-14,0.0000000
1421.5707,1.4966683e-14,0.0000000
1422.5708,1.4935195e-14,0.0000000
1423.5709,1.4905000e-14,0.0000000
1424.5711,1.4873597e-14,0.0000000
1425.5712,1.4842052e-14,0.0000000
1426.5713,1.4810601e-14,0.0000000
1427.5714,1.4779324e-14,0.0000000
1428.5715,1.4749017e-14,0.0000000
1429.5716,1.4717696e-14,0.0000000
1430.5717,1.4687360e-14,0.0000000
1431.5718,1.4655916e-14,0.0000000
1432.5719,1.4625590e-14,0.0000000
1433.5720,1.4594237e-14,0.0000000
1434.5722,1.4564048e-14,0.0000000
1435.5723,1.4533594e-14,0.0000000
1436.5724,1.4503125e-14,0.0000000
1437.5725,1.4472163e-14,0.0000000
1438.5726,1.4442480e-14,0.0000000
1439.5727,1.4411498e-14,0.0000000
1440.5728,1.4381703e-14,0.0000000
1441.5729,1.4351876e-14,0.0000000
1442.5731,1.4321727e-14,0.0000000
1443.5732,1.4291513e-14,0.0000000
1444.5733,1.4261498e-14,0.0000000
1445.5734,1.4231620e-14,0.0000000
1446.5735,1.4202001e-14,0.0000000
1447.5736,1.4172079e-14,0.0000000
1448.5738,1.4142495e-14,0.0000000
1449.5739,1.4112502e-14,0.0000000
1450.5740,1.4083023e-14,0.0000000
1451.5741,1.4053355e-14,0.0000000
1452.5742,1.4023961e-14,0.0000000
1453.5743,1.3995108e-14,0.0000000
1454.5745,1.3965549e-14,0.0000000
1455.5746,1.3936234e-14,0.0000000
1456.5747,1.3907071e-14,0.0000000
1457.5748,1.3878492e-14,0.0000000
1458.5749,1.3848874e-14,0.0000000
1459.5751,1.3820165e-14,0.0000000
1460.5752,1.3790800e-14,0.0000000
1461.5753,1.3762002e-14,0.0000000
1462.5754,1.3733572e-14,0.0000000
1463.5756,1.3704955e-14,0.0000000
1464.5757,1.3675956e-14,0.0000000
1465.5758,1.3648009e-14,0.0000000
1466.5759,1.3619416e-14,0.0000000
1467.5760,1.3590506e-14,0.0000000
1468.5762,1.3562509e-14,0.0000000
1469.5763,1.3534020e-14,0.0000000
1470.5764,1.3505335e-14,0.0000000
1471.5765,1.3476788e-14,0.0000000
1472.5767,1.3449504e-14,0.0000000
1473.5768,1.3420932e-14,0.0000000
1474.5769,1.3393601e-14,0.0000000
1475.5770,1.3365671e-14,0.0000000
1476.5772,1.3337573e-14,0.0000000
1477.5773,1.3309460e-14,0.0000000
1478.5774,1.3281197e-14,0.0000000
1479.5776,1.3254354e-14,0.0000000
1480.5777,1.3226341e-14,0.0000000
1481.5778,1.3198776e-14,0.0000000
1482.5779,1.3171383e-14,0.0000000
1483.5781,1.3143117e-14,0.0000000
1484.5782,1.3116321e-14,0.0000000
1485.5783,1.3089370e-14,0.0000000
1486.5785,1.3061833e-14,0.0000000
1487.5786,1.3034163e-14,0.0000000
1488.5787,1.3007738e-14,0.0000000
1489.5788,1.2980255e-14,0.0000000
1490.5790,1.2953454e-14,0.0000000
1491.5791,1.2926224e-14,0.0000000
1492.5792,1.2899761e-14,0.0000000
1493.5794,1.2872096e-14,0.0000000
1494.5795,1.2845892e-14,0.0000000
1495.5796,1.2819443e-14,0.0000000
1496.5798,1.2791645e-14,0.0000000
1497.5799,1.2765345e-14,0.0000000
1498.5800,1.2739025e-14,0.0000000
1499.5802,1.2712698e-14,0.0000000
1500.5803,1.2686356e-14,0.0000000
1501.5804,1.2659962e-14,0.0000000
1502.5806,1.2633572e-14,0.0000000
1503.5807,1.2607180e-14,0.0000000
1504.5809,1.2580724e-14,0.0000000
1505.5810,1.2554290e-14,0.0000000
1506.5811,1.2528426e-14,0.0000000
1507.5813,1.2502999e-14,0.0000000
1508.5814,1.2476506e-14,0.0000000
1509.5815,1.2450073e-14,0.0000000
1510.5817,1.2425121e-14,0.0000000
1511.5818,1.2398645e-14,0.0000000
1512.5819,1.2373678e-14,0.0000000
1513.5821,1.2347083e-14,0.0000000
1514.5822,1.2322151e-14,0.0000000
1515.5824,1.2296833e-14,0.0000000
1516.5825,1.2270548e-14,0.0000000
1517.5826,1.2245572e-14,0.0000000
1518.5828,1.2220554e-14,0.0000000
1519.5829,1.2194238e-14,0.0000000
1520.5831,1.2169037e-14,0.0000000
1521.5832,1.2143871e-14,0.0000000
1522.5833,1.2119433e-14,0.0000000
1523.5835,1.2093325e-14,0.0000000
1524.5836,1.2068907e-14,0.0000000
1525.5838,1.2044340e-14,0.0000000
1526.5839,1.2018408e-14,0.0000000
1527.5841,1.1993761e-14,0.0000000
1528.5842,1.1969244e-14,0.0000000
1529.5843,1.1944602e-14,0.0000000
1530.5845,1.1920091e-14,0.0000000
1531.5846,1.1895572e-14,0.0000000
1532.5848,1.1870079e-14,0.0000000
1533.5849,1.1845777e-14,0.0000000
1534.5851,1.1821466e-14,0.0000000
1535.5852,1.1797157e-14,0.0000000
1536.5854,1.1772521e-14,0.0000000
1537.5855,1.1747890e-14,0.0000000
1538.5856,1.1723227e-14,0.0000000
1539.5858,1.1699826e-14,0.0000000
1540.5859,1.1675449e-14,0.0000000
1541.5861,1.1651054e-14,0.0000000
1542.5862,1.1626623e-14,0.0000000
1543.5864,1.1602955e-14,0.0000000
1544.5865,1.1579362e-14,0.0000000
1545.5867,1.1555043e-14,0.0000000
1546.5868,1.1532009e-14,0.0000000
1547.5870,1.1507669e-14,0.0000000
1548.5871,1.1483983e-14,0.0000000
1549.5873,1.1460383e-14,0.0000000
1550.5874,1.1436073e-14,0.0000000
1551.5876,1.1412952e-14,0.0000000
1552.5877,1.1389682e-14,0.0000000
1553.5879,1.1365551e-14,0.0000000
1554.5880,1.1342599e-14,0.0000000
1555.5882,1.1318448e-14,0.0000000
1556.5883,1.1295108e-14,0.0000000
1557.5885,1.1272172e-14,0.0000000
1558.5886,1.1248927e-14,0.0000000
1559.5888,1.1226217e-14,0.0000000
1560.5889,1.1202791e-14,0.0000000
1561.5891,1.1179236e-14,0.0000000
1562.5892,1.1156516e-14,0.0000000
1563.5894,1.1133648e-14,0.0000000
1564.5895,1.1111170e-14,0.0000000
1565.5897,1.1088354e-14,0.0000000
1566.5898,1.1064400e-14,0.0000000
1567.5900,1.1041890e-14,0.0000000
1568.5901,1.1019214e-14,0.0000000
1569.5903,1.0996679e-14,0.0000000
1570.5904,1.0974071e-14,0.0000000
1571.5906,1.0951504e-14,0.0000000
1572.5908,1.0928901e-14,0.0000000
1573.5909,1.0906304e-14,0.0000000
1574.5911,1.0883669e-14,0.0000000
1575.5912,1.0862235e-14,0.0000000
1576.5914,1.0840001e-14,0.0000000
1577.5915,1.0817330e-14,0.0000000
1578.5917,1.0794648e-14,0.0000000
1579.5918,1.0773338e-14,0.0000000
1580.5920,1.0750897e-14,0.0000000
1581.5922,1.0728222e-14,0.0000000
1582.5923,1.0707059e-14,0.0000000
1583.5925,1.0684419e-14,0.0000000
1584.5926,1.0663319e-14,0.0000000
1585.5928,1.0640523e-14,0.0000000
1586.5930,1.0619495e-14,0.0000000
1587.5931,1.0596705e-14,0.0000000
1588.5933,1.0575614e-14,0.0000000
1589.5934,1.0554452e-14,0.0000000
1590.5936,1.0531612e-14,0.0000000
1591.5937,1.0510527e-14,0.0000000
1592.5939,1.0489307e-14,0.0000000
1593.5941,1.0468168e-14,0.0000000
1594.5942,1.0446144e-14,0.0000000
1595.5944,1.0424129e-14,0.0000000
1596.5945,1.0403427e-14,0.0000000
1597.5947,1.0382635e-14,0.0000000
1598.5949,1.0360330e-14,0.0000000
1599.5950,1.0339546e-14,0.0000000
1600.5952,1.0318818e-14,0.0000000
1601.5954,1.0297756e-14,0.0000000
1602.5955,1.0275699e-14,0.0000000
1603.5957,1.0254835e-14,0.0000000
1604.5958,1.0234100e-14,0.0000000
1605.5960,1.0213335e-14,0.0000000
1606.5962,1.0192467e-14,0.0000000
1607.5963,1.0171696e-14,0.0000000
1608.5965,1.0150931e-14,0.0000000
1609.5967,1.0130125e-14,0.0000000
1610.5968,1.0109203e-14,0.0000000
1611.5970,1.0088373e-14,0.0000000
1612.5971,1.0067561e-14,0.0000000
1613.5973,1.0047079e-14,0.0000000
1614.5975,1.0027507e-14,0.0000000
1615.5976,1.0006656e-14,0.0000000
1616.5978,9.9857870e-15,0.0000000
1617.5980,9.9654747e-15,0.0000000
1618.5981,9.9456431e-15,0.0000000
1619.5983,9.9247457e-15,0.0000000
1620.5985,9.9051102e-15,0.0000000
1621.5986,9.8846063e-15,0.0000000
1622.5988,9.8645352e-15,0.0000000
1623.5990,9.8443724e-15,0.0000000
1624.5991,9.8244108e-15,0.0000000
1625.5993,9.8041329e-15,0.0000000
1626.5995,9.7843168e-15,0.0000000
1627.5996,9.7639216e-15,0.0000000
1628.5998,9.7445323e-15,0.0000000
1629.6000,9.7248995e-15,0.0000000
1630.6001,9.7043122e-15,0.0000000
1631.6003,9.6849077e-15,0.0000000
1632.6005,9.6653247e-15,0.0000000
1633.6007,9.6459253e-15,0.0000000
1634.6008,9.6255084e-15,0.0000000
1635.6010,9.6065614e-15,0.0000000
1636.6012,9.5860480e-15,0.0000000
1637.6013,9.5671870e-15,0.0000000
1638.6015,9.5478918e-15,0.0000000
1639.6017,9.5276016e-15,0.0000000
1640.6018,9.5087758e-15,0.0000000
1641.6020,9.4897390e-15,0.0000000
1642.6022,9.4703967e-15,0.0000000
1643.6024,9.4513482e-15,0.0000000
1644.6025,9.4313886e-15,0.0000000
1645.6027,9.4123684e-15,0.0000000
1646.6029,9.3933585e-15,0.0000000
1647.6030,9.3743428e-15,0.0000000
1648.6032,9.3554151e-15,0.0000000
1649.6034,9.3364163e-15,0.0000000
1650.6036,9.3174037e-15,0.0000000
1651.6037,9.2984260e-15,0.0000000
1652.6039,9.2794196e-15,0.0000000
1653.6041,9.2605840e-15,0.0000000
1654.6043,9.2415599e-15,0.0000000
1655.6044,9.2231590e-15,0.0000000
1656.6046,9.2041263e-15,0.0000000
1657.6048,9.1859235e-15,0.0000000
1658.6049,9.1669067e-15,0.0000000
1659.6051,9.1485009e-15,0.0000000
1660.6053,9.1294347e-15,0.0000000
1661.6055,9.1113967e-15,0.0000000
1662.6056,9.0929023e-15,0.0000000
1663.6058,9.0737988e-15,0.0000000
1664.6060,9.0558646e-15,0.0000000
1665.6062,9.0372383e-15,0.0000000
1666.6064,9.0193146e-15,0.0000000
1667.6065,9.0007399e-15,0.0000000
1668.6067,8.9828634e-15,0.0000000
1669.6069,8.9640845e-15,0.0000000
1670.6071,8.9462297e-15,0.0000000
1671.6072,8.9287086e-15,0.0000000
1672.6074,8.9100925e-15,0.0000000
1673.6076,8.8921147e-15,0.0000000
1674.6078,8.8738482e-15,0.0000000
1675.6079,8.8561454e-15,0.0000000
1676.6081,8.8380867e-15,0.0000000
1677.6083,8.8202368e-15,0.0000000
1678.6085,8.8023793e-15,0.0000000
1679.6087,8.7842486e-15,0.0000000
1680.6088,8.7665499e-15,0.0000000
1681.6090,8.7494298e-15,0.0000000
1682.6092,8.7311326e-15,0.0000000
1683.6094,8.7135455e-15,0.0000000
1684.6095,8.6962829e-15,0.0000000
1685.6097,8.6782145e-15,0.0000000
1686.6099,8.6608693e-15,0.0000000
1687.6101,8.6431834e-15,0.0000000
1688.6103,8.6257127e-15,0.0000000
1689.6104,8.6084998e-15,0.0000000
1690.6106,8.5909758e-15,0.0000000
1691.6108,8.5739273e-15,0.0000000
1692.6110,8.5567179e-15,0.0000000
1693.6112,8.5394794e-15,0.0000000
1694.6114,8.5221455e-15,0.0000000
1695.6115,8.5040359e-15,0.0000000
1696.6117,8.4876182e-15,0.0000000
1697.6119,8.4703418e-15,0.0000000
1698.6121,8.4530843e-15,0.0000000
1699.6123,8.4358192e-15,0.0000000
1700.6124,8.4184826e-15,0.0000000
1701.6126,8.4015056e-15,0.0000000
1702.6128,8.3843270e-15,0.0000000
1703.6130,8.3683278e-15,0.0000000
1704.6132,8.3509335e-15,0.0000000
1705.6134,8.3337832e-15,0.0000000
1706.6135,8.3173097e-15,0.0000000
1707.6137,8.3007224e-15,0.0000000
1708.6139,8.2834405e-15,0.0000000
1709.6141,8.2674400e-15,0.0000000
1710.6143,8.2504783e-15,0.0000000
1711.6145,8.2334974e-15,0.0000000
1712.6146,8.2175083e-15,0.0000000
1713.6148,8.2002478e-15,0.0000000
1714.6150,8.1847312e-15,0.0000000
1715.6152,8.1677795e-15,0.0000000
1716.6154,8.1506855e-15,0.0000000
1717.6156,8.1351011e-15,0.0000000
1718.6158,8.1183752e-15,0.0000000
1719.6159,8.1016257e-15,0.0000000
1720.6161,8.0860565e-15,0.0000000
1721.6163,8.0690686e-15,0.0000000
1722.6165,8.0537134e-15,0.0000000
1723.6167,8.0367036e-15,0.0000000
1724.6169,8.0213333e-15,0.0000000
1725.6171,8.0043250e-15,0.0000000
1726.6172,7.9889450e-15,0.0000000
1727.6174,7.9719938e-15,0.0000000
1728.6176,7.9566604e-15,0.0000000
1729.6178,7.9409865e-15,0.0000000
1730.6180,7.9242213e-15,0.0000000
1731.6182,7.9088479e-15,0.0000000
1732.6184,7.8934320e-15,0.0000000
1733.6186,7.8765037e-15,0.0000000
1734.6187,7.8610795e-15,0.0000000
1735.6189,7.8456863e-15,0.0000000
1736.6191,7.8302497e-15,0.0000000
1737.6193,7.8132942e-15,0.0000000
1738.6195,7.7978822e-15,0.0000000
1739.6197,7.7824951e-15,0.0000000
1740.6199,7.7671083e-15,0.0000000
1741.6201,7.7516814e-15,0.0000000
1742.6203,7.7363330e-15,0.0000000
1743.6204,7.7206268e-15,0.0000000
1744.6206,7.7051634e-15,0.0000000
1745.6208,7.6897644e-15,0.0000000
1746.6210,7.6744100e-15,0.0000000
1747.6212,7.6589340e-15,0.0000000
1748.6214,7.6435584e-15,0.0000000
1749.6216,7.6280933e-15,0.0000000
1750.6218,7.6130451e-15,0.0000000
1751.6220,7.5975591e-15,0.0000000
1752.6222,7.5821740e-15,0.0000000
1753.6224,7.5668048e-15,0.0000000
1754.6225,7.5513060e-15,0.0000000
1755.6227,7.5360143e-15,0.0000000
1756.6229,7.5209121e-15,0.0000000
1757.6231,7.5057880e-15,0.0000000
1758.6233,7.4906281e-15,0.0000000
1759.6235,7.4755765e-15,0.0000000
1760.6237,7.4617509e-15,0.0000000
1761.6239,7.4466314e-15,0.0000000
1762.6241,7.4318765e-15,0.0000000
1763.6243,7.4166913e-15,0.0000000
1764.6245,7.4016105e-15,0.0000000
1765.6247,7.3865301e-15,0.0000000
1766.6249,7.3715315e-15,0.0000000
1767.6251,7.3575449e-15,0.0000000
1768.6252,7.3427819e-15,0.0000000
1769.6254,7.3276717e-15,0.0000000
1770.6256,7.3127369e-15,0.0000000
1771.6258,7.2986371e-15,0.0000000
1772.6260,7.2838683e-15,0.0000000
1773.6262,7.2693720e-15,0.0000000
1774.6264,7.2550061e-15,0.0000000
1775.6266,7.2399944e-15,0.0000000
1776.6268,7.2261747e-15,0.0000000
1777.6270,7.2113713e-15,0.0000000
1778.6272,7.1966484e-15,0.0000000
1779.6274,7.1827284e-15,0.0000000
1780.6276,7.1675725e-15,0.0000000
1781.6278,7.1539203e-15,0.0000000
1782.6280,7.1393639e-15,0.0000000
1783.6282,7.1250618e-15,0.0000000
1784.6284,7.1113729e-15,0.0000000
1785.6286,7.0965492e-15,0.0000000
1786.6288,7.0827681e-15,0.0000000
1787.6290,7.0681929e-15,0.0000000
1788.6291,7.0540484e-15,0.0000000
1789.6293,7.0401222e-15,0.0000000
1790.6295,7.0256897e-15,0.0000000
1791.6297,7.0118293e-15,0.0000000
1792.6299,6.9982787e-15,0.0000000
1793.6301,6.9834183e-15,0.0000000
1794.6303,6.9696762e-15,0.0000000
1795.6305,6.9560546e-15,0.0000000
1796.6307,6.9424552e-15,0.0000000
1797.6309,6.9286053e-15,0.0000000
1798.6311,6.9141352e-15,0.0000000
1799.6313,6.9006844e-15,0.0000000
1800.6315,6.8861373e-15,0.0000000
1801.6317,6.8727328e-15,0.0000000
1802.6319,6.8593022e-15,0.0000000
1803.6321,6.8447115e-15,0.0000000
1804.6323,6.8313914e-15,0.0000000
1805.6325,6.8179105e-15,0.0000000
1806.6327,6.8046020e-15,0.0000000
1807.6329,6.7910872e-15,0.0000000
1808.6331,6.7766275e-15,0.0000000
1809.6333,6.7632870e-15,0.0000000
1810.6335,6.7499218e-15,0.0000000
1811.6337,6.7365798e-15,0.0000000
1812.6339,6.7233033e-15,0.0000000
1813.6341,6.7100644e-15,0.0000000
1814.6343,6.6962770e-15,0.0000000
1815.6345,6.6825052e-15,0.0000000
1816.6347,6.6690440e-15,0.0000000
1817.6349,6.6555046e-15,0.0000000
1818.6351,6.6421149e-15,0.0000000
1819.6353,6.6289890e-15,0.0000000
1820.6355,6.6154287e-15,0.0000000
1821.6357,6.6022815e-15,0.0000000
1822.6359,6.5892490e-15,0.0000000
1823.6361,6.5757988e-15,0.0000000
1824.6363,6.5633336e-15,0.0000000
1825.6365,6.5497058e-15,0.0000000
1826.6367,6.5371062e-15,0.0000000
1827.6369,6.5235638e-15,0.0000000
1828.6371,6.5105061e-15,0.0000000
1829.6373,6.4972511e-15,0.0000000
1830.6375,6.4838868e-15,0.0000000
1831.6377,6.4714652e-15,0.0000000
1832.6379,6.4588462e-15,0.0000000
1833.6381,6.4454168e-15,0.0000000
1834.6383,6.4321427e-15,0.0000000
1835.6386,6.4194871e-15,0.0000000
1836.6388,6.4070526e-15,0.0000000
1837.6390,6.3937435e-15,0.0000000
1838.6392,6.3812343e-15,0.0000000
1839.6394,6.3686482e-15,0.0000000
1840.6396,6.3552620e-15,0.0000000
1841.6398,6.3421808e-15,0.0000000
1842.6400,6.3293836e-15,0.0000000
1843.6402,6.3173983e-15,0.0000000
1844.6404,6.3046208e-15,0.0000000
1845.6406,6.2915637e-15,0.0000000
1846.6408,6.2785536e-15,0.0000000
1847.6410,6.2660401e-15,0.0000000
1848.6412,6.2540041e-15,0.0000000
1849.6414,6.2409878e-15,0.0000000
1850.6416,6.2283938e-15,0.0000000
1851.6418,6.2163830e-15,0.0000000
1852.6420,6.2033856e-15,0.0000000
1853.6422,6.1906210e-15,0.0000000
1854.6424,6.1785894e-15,0.0000000
1855.6426,6.1658092e-15,0.0000000
1856.6428,6.1540357e-15,0.0000000
1857.6431,6.1411744e-15,0.0000000
1858.6433,6.1287688e-15,0.0000000
1859.6435,6.1167285e-15,0.0000000
1860.6437,6.1044396e-15,0.0000000
1861.6439,6.0919002e-15,0.0000000
1862.6441,6.0790286e-15,0.0000000
1863.6443,6.0674057e-15,0.0000000
1864.6445,6.0547471e-15,0.0000000
1865.6447,6.0426597e-15,0.0000000
1866.6449,6.0304660e-15,0.0000000
1867.6451,6.0185130e-15,0.0000000
1868.6453,6.0061813e-15,0.0000000
1869.6455,5.9941868e-15,0.0000000
1870.6457,5.9819621e-15,0.0000000
1871.6460,5.9699506e-15,0.0000000
1872.6462,5.9580414e-15,0.0000000
1873.6464,5.9457000e-15,0.0000000
1874.6466,5.9336885e-15,0.0000000
1875.6468,5.9217519e-15,0.0000000
1876.6470,5.9096572e-15,0.0000000
1877.6472,5.8975827e-15,0.0000000
1878.6474,5.8854344e-15,0.0000000
1879.6476,5.8737372e-15,0.0000000
1880.6478,5.8621052e-15,0.0000000
1881.6480,5.8503668e-15,0.0000000
1882.6482,5.8382900e-15,0.0000000
1883.6485,5.8262184e-15,0.0000000
1884.6487,5.8143754e-15,0.0000000
1885.6489,5.8022915e-15,0.0000000
1886.6491,5.7903553e-15,0.0000000
1887.6493,5.7789062e-15,0.0000000
1888.6495,5.7675230e-15,0.0000000
1889.6497,5.7558409e-15,0.0000000
1890.6499,5.7439235e-15,0.0000000
1891.6501,5.7319663e-15,0.0000000
1892.6503,5.7202066e-15,0.0000000
1893.6506,5.7083418e-15,0.0000000
1894.6508,5.6969178e-15,0.0000000
1895.6510,5.6855669e-15,0.0000000
1896.6512,5.6738982e-15,0.0000000
1897.6514,5.6621519e-15,0.0000000
1898.6516,5.6503331e-15,0.0000000
1899.6518,5.6396026e-15,0.0000000
1900.6520,5.6276973e-15,0.0000000
1901.6522,5.6159740e-15,0.0000000
1902.6525,5.6050433e-15,0.0000000
1903.6527,5.5933234e-15,0.0000000
1904.6529,5.5815478e-15,0.0000000
1905.6531,5.5710373e-15,0.0000000
1906.6533,5.5590422e-15,0.0000000
1907.6535,5.5473423e-15,0.0000000
1908.6537,5.5366908e-15,0.0000000
1909.6539,5.5247502e-15,0.0000000
1910.6541,5.5132400e-15,0.0000000
1911.6544,5.5023259e-15,0.0000000
1912.6546,5.4907296e-15,0.0000000
1913.6548,5.4800070e-15,0.0000000
1914.6550,5.4683261e-15,0.0000000
1915.6552,5.4575589e-15,0.0000000
1916.6554,5.4458012e-15,0.0000000
1917.6556,5.4351929e-15,0.0000000
1918.6558,5.4234128e-15,0.0000000
1919.6561,5.4128433e-15,0.0000000
1920.6563,5.4010077e-15,0.0000000
1921.6565,5.3903443e-15,0.0000000
1922.6567,5.3790691e-15,0.0000000
1923.6569,5.3679531e-15,0.0000000
1924.6571,5.3575332e-15,0.0000000
1925.6573,5.3455308e-15,0.0000000
1926.6576,5.3351273e-15,0.0000000
1927.6578,5.3240023e-15,0.0000000
1928.6580,5.3127055e-15,0.0000000
1929.6582,5.3022924e-15,0.0000000
1930.6584,5.2914175e-15,0.0000000
1931.6586,5.2800023e-15,0.0000000
1932.6588,5.2697896e-15,0.0000000
1933.6591,5.2579718e-15,0.0000000
1934.6593,5.2477516e-15,0.0000000
1935.6595,5.2360165e-15,0.0000000
1936.6597,5.2255668e-15,0.0000000
