wave,flux,fluxerr
1350.5642,1.1830058e-13,0.0000000
1351.5643,1.1804261e-13,0.0000000
1352.5644,1.1779414e-13,0.0000000
1353.5644,1.1755207e-13,0.0000000
1354.5645,1.1731395e-13,0.0000000
1355.5646,1.1706320e-13,0.0000000
1356.5647,1.1682881e-13,0.0000000
1357.5648,1.1657602e-13,0.0000000
1358.5648,1.1634357e-13,0.0000000
1359.5649,1.1610682e-13,0.0000000
1360.5650,1.1585776e-13,0.0000000
1361.5651,1.1562270e-13,0.0000000
1362.5652,1.1538486e-13,0.0000000
1363.5652,1.1514787e-13,0.0000000
1364.5653,1.1489646e-13,0.0000000
1365.5654,1.1466114e-13,0.0000000
1366.5655,1.1442224e-13,0.0000000
1367.5656,1.1418559e-13,0.0000000
1368.5657,1.1394600e-13,0.0000000
1369.5657,1.1371150e-13,0.0000000
1370.5658,1.1347838e-13,0.0000000
1371.5659,1.1324468e-13,0.0000000
1372.5660,1.1300550e-13,0.0000000
1373.5661,1.1276789e-13,0.0000000
1374.5662,1.1252942e-13,0.0000000
1375.5663,1.1229506e-13,0.0000000
1376.5663,1.1206525e-13,0.0000000
1377.5664,1.1183513e-13,0.0000000
1378.5665,1.1159882e-13,0.0000000
1379.5666,1.1137737e-13,0.0000000
1380.5667,1.1114179e-13,0.0000000
1381.5668,1.1090160e-13,0.0000000
1382.5669,1.1066514e-13,0.0000000
1383.5670,1.1043692e-13,0.0000000
1384.5671,1.1021269e-13,0.0000000
1385.5671,1.0997780e-13,0.0000000
1386.5672,1.0974218e-13,0.0000000
1387.5673,1.0951908e-13,0.0000000
1388.5674,1.0929378e-13,0.0000000
1389.5675,1.0906823e-13,0.0000000
1390.5676,1.0884279e-13,0.0000000
1391.5677,1.0862321e-13,0.0000000
1392.5678,1.0838649e-13,0.0000000
1393.5679,1.0815750e-13,0.0000000
1394.5680,1.0793727e-13,0.0000000
1395.5681,1.0770743e-13,0.0000000
1396.5682,1.0748143e-13,0.0000000
1397.5683,1.0727239e-13,0.0000000
1398.5684,1.0704212e-13,0.0000000
1399.5685,1.0681273e-13,0.0000000
1400.5686,1.0659670e-13,0.0000000
1401.5687,1.0637480e-13,0.0000000
1402.5688,1.0615499e-13,0.0000000
1403.5689,1.0592547e-13,0.0000000
1404.5690,1.0571840e-13,0.0000000
1405.5691,1.0548396e-13,0.0000000
1406.5692,1.0527779e-13,0.0000000
1407.5693,1.0505406e-13,0.0000000
1408.5694,1.0483246e-13,0.0000000
1409.5695,1.0461052e-13,0.0000000
1410.5696,1.0439184e-13,0.0000000
1411.5697,1.0419185e-13,0.0000000
1412.5698,1.0395275e-13,0.0000000
1413.5699,1.0374864e-13,0.0000000
1414.5700,1.0353131e-13,0.0000000
1415.5701,1.0331493e-13,0.0000000
1416.5702,1.0310702e-13,0.0000000
1417.5703,1.0289798e-13,0.0000000
1418.5704,1.0266727e-13,0.0000000
1419.5705,1.0246353e-13,0.0000000
1420.5706,1.0225170e-13,0.0000000
1421.5707,1.0203211e-13,0.0000000
1422.5708,1.0181895e-13,0.0000000
1423.5709,1.0161595e-13,0.0000000
1424.5711,1.0140482e-13,0.0000000
1425.5712,1.0119072e-13,0.0000000
1426.5713,1.0098730e-13,0.0000000
1427.5714,1.0077421e-13,0.0000000
1428.5715,1.0057052e-13,0.0000000
1429.5716,1.0036014e-13,0.0000000
1430.5717,1.0014339e-13,0.0000000
1431.5718,9.9945564e-14,0.0000000
1432.5719,9.9740840e-14,0.0000000
1433.5720,9.9525685e-14,0.0000000
1434.5722,9.9310804e-14,0.0000000
1435.5723,9.9109481e-14,0.0000000
1436.5724,9.8911181e-14,0.0000000
1437.5725,9.8704464e-14,0.0000000
1438.5726,9.8499504e-14,0.0000000
1439.5727,9.8301438e-14,0.0000000
1440.5728,9.8102867e-14,0.0000000
1441.5729,9.7902482e-14,0.0000000
1442.5731,9.7694217e-14,0.0000000
1443.5732,9.7480732e-14,0.0000000
1444.5733,9.7296576e-14,0.0000000
1445.5734,9.7084521e-14,0.0000000
1446.5735,9.6893592e-14,0.0000000
1447.5736,9.6686476e-14,0.0000000
1448.5738,9.6491052e-14,0.0000000
1449.5739,9.6286306e-14,0.0000000
1450.5740,9.6089087e-14,0.0000000
1451.5741,9.5894698e-14,0.0000000
1452.5742,9.5698488e-14,0.0000000
1453.5743,9.5501038e-14,0.0000000
1454.5745,9.5301078e-14,0.0000000
1455.5746,9.5107162e-14,0.0000000
1456.5747,9.4911460e-14,0.0000000
1457.5748,9.4718653e-14,0.0000000
1458.5749,9.4520344e-14,0.0000000
1459.5751,9.4321890e-14,0.0000000
1460.5752,9.4128637e-14,0.0000000
1461.5753,9.3932187e-14,0.0000000
1462.5754,9.3737229e-14,0.0000000
1463.5756,9.3553585e-14,0.0000000
1464.5757,9.3365343e-14,0.0000000
1465.5758,9.3166106e-14,0.0000000
1466.5759,9.2969935e-14,0.0000000
1467.5760,9.2783866e-14,0.0000000
1468.5762,9.2589827e-14,0.0000000
1469.5763,9.2408850e-14,0.0000000
1470.5764,9.2221292e-14,0.0000000
1471.5765,9.2021204e-14,0.0000000
1472.5767,9.1832228e-14,0.0000000
1473.5768,9.1645702e-14,0.0000000
1474.5769,9.1464727e-14,0.0000000
1475.5770,9.1273018e-14,0.0000000
1476.5772,9.1072252e-14,0.0000000
1477.5773,9.0902367e-14,0.0000000
1478.5774,9.0714697e-14,0.0000000
1479.5776,9.0521661e-14,0.0000000
1480.5777,9.0343436e-14,0.0000000
1481.5778,9.0160062e-14,0.0000000
1482.5779,8.9962797e-14,0.0000000
1483.5781,8.9791046e-14,0.0000000
1484.5782,8.9603906e-14,0.0000000
1485.5783,8.9414716e-14,0.0000000
1486.5785,8.9249320e-14,0.0000000
1487.5786,8.9058367e-14,0.0000000
1488.5787,8.8871928e-14,0.0000000
1489.5788,8.8696758e-14,0.0000000
1490.5790,8.8512103e-14,0.0000000
1491.5791,8.8334857e-14,0.0000000
1492.5792,8.8156580e-14,0.0000000
1493.5794,8.7970549e-14,0.0000000
1494.5795,8.7798766e-14,0.0000000
1495.5796,8.7611074e-14,0.0000000
1496.5798,8.7428535e-14,0.0000000
1497.5799,8.7254200e-14,0.0000000
1498.5800,8.7074800e-14,0.0000000
1499.5802,8.6901147e-14,0.0000000
1500.5803,8.6720774e-14,0.0000000
1501.5804,8.6554093e-14,0.0000000
1502.5806,8.6370285e-14,0.0000000
1503.5807,8.6201556e-14,0.0000000
1504.5809,8.6015109e-14,0.0000000
1505.5810,8.5850077e-14,0.0000000
1506.5811,8.5668676e-14,0.0000000
1507.5813,8.5507834e-14,0.0000000
1508.5814,8.5337230e-14,0.0000000
1509.5815,8.5149759e-14,0.0000000
1510.5817,8.4990172e-14,0.0000000
1511.5818,8.4800976e-14,0.0000000
1512.5819,8.4636103e-14,0.0000000
1513.5821,8.4474461e-14,0.0000000
1514.5822,8.4293884e-14,0.0000000
1515.5824,8.4123674e-14,0.0000000
1516.5825,8.3944963e-14,0.0000000
1517.5826,8.3788727e-14,0.0000000
1518.5828,8.3627129e-14,0.0000000
1519.5829,8.3439797e-14,0.0000000
1520.5831,8.3278118e-14,0.0000000
1521.5832,8.3111948e-14,0.0000000
1522.5833,8.2931087e-14,0.0000000
1523.5835,8.2775767e-14,0.0000000
1524.5836,8.2613787e-14,0.0000000
1525.5838,8.2431826e-14,0.0000000
1526.5839,8.2278484e-14,0.0000000
1527.5841,8.2118591e-14,0.0000000
1528.5842,8.1936612e-14,0.0000000
1529.5843,8.1782027e-14,0.0000000
1530.5845,8.1613452e-14,0.0000000
1531.5846,8.1437744e-14,0.0000000
1532.5848,8.1282057e-14,0.0000000
1533.5849,8.1122903e-14,0.0000000
1534.5851,8.0972289e-14,0.0000000
1535.5852,8.0785731e-14,0.0000000
1536.5854,8.0634742e-14,0.0000000
1537.5855,8.0478747e-14,0.0000000
1538.5856,8.0316474e-14,0.0000000
1539.5858,8.0144404e-14,0.0000000
1540.5859,7.9976206e-14,0.0000000
1541.5861,7.9824573e-14,0.0000000
1542.5862,7.9668695e-14,0.0000000
1543.5864,7.9513312e-14,0.0000000
1544.5865,7.9356314e-14,0.0000000
1545.5867,7.9182170e-14,0.0000000
1546.5868,7.9029525e-14,0.0000000
1547.5870,7.8866007e-14,0.0000000
1548.5871,7.8714022e-14,0.0000000
1549.5873,7.8562067e-14,0.0000000
1550.5874,7.8399034e-14,0.0000000
1551.5876,7.8244962e-14,0.0000000
1552.5877,7.8093352e-14,0.0000000
1553.5879,7.7918569e-14,0.0000000
1554.5880,7.7766771e-14,0.0000000
1555.5882,7.7604544e-14,0.0000000
1556.5883,7.7450176e-14,0.0000000
1557.5885,7.7303614e-14,0.0000000
1558.5886,7.7153001e-14,0.0000000
1559.5888,7.7004086e-14,0.0000000
1560.5889,7.6855234e-14,0.0000000
1561.5891,7.6697444e-14,0.0000000
1562.5892,7.6546929e-14,0.0000000
1563.5894,7.6396246e-14,0.0000000
1564.5895,7.6245732e-14,0.0000000
1565.5897,7.6095970e-14,0.0000000
1566.5898,7.5946167e-14,0.0000000
1567.5900,7.5792900e-14,0.0000000
1568.5901,7.5618706e-14,0.0000000
1569.5903,7.5467682e-14,0.0000000
1570.5904,7.5316406e-14,0.0000000
1571.5906,7.5165226e-14,0.0000000
1572.5908,7.5019614e-14,0.0000000
1573.5909,7.4868766e-14,0.0000000
1574.5911,7.4741763e-14,0.0000000
1575.5912,7.4591733e-14,0.0000000
1576.5914,7.4441494e-14,0.0000000
1577.5915,7.4292878e-14,0.0000000
1578.5917,7.4147706e-14,0.0000000
1579.5918,7.4003252e-14,0.0000000
1580.5920,7.3851278e-14,0.0000000
1581.5922,7.3699166e-14,0.0000000
1582.5923,7.3547969e-14,0.0000000
1583.5925,7.3416395e-14,0.0000000
1584.5926,7.3264823e-14,0.0000000
1585.5928,7.3117686e-14,0.0000000
1586.5930,7.2966850e-14,0.0000000
1587.5931,7.2840121e-14,0.0000000
1588.5933,7.2697032e-14,0.0000000
1589.5934,7.2545848e-14,0.0000000
1590.5936,7.2395095e-14,0.0000000
1591.5937,7.2261096e-14,0.0000000
1592.5939,7.2110984e-14,0.0000000
1593.5941,7.1985881e-14,0.0000000
1594.5942,7.1834410e-14,0.0000000
1595.5944,7.1690213e-14,0.0000000
1596.5945,7.1548524e-14,0.0000000
1597.5947,7.1399580e-14,0.0000000
1598.5949,7.1260455e-14,0.0000000
1599.5950,7.1120032e-14,0.0000000
1600.5952,7.0994663e-14,0.0000000
1601.5954,7.0845947e-14,0.0000000
1602.5955,7.0704837e-14,0.0000000
1603.5957,7.0570683e-14,0.0000000
1604.5958,7.0421766e-14,0.0000000
1605.5960,7.0295229e-14,0.0000000
1606.5962,7.0156258e-14,0.0000000
1607.5963,7.0019660e-14,0.0000000
1608.5965,6.9874588e-14,0.0000000
1609.5967,6.9731133e-14,0.0000000
1610.5968,6.9604983e-14,0.0000000
1611.5970,6.9470580e-14,0.0000000
1612.5971,6.9328580e-14,0.0000000
1613.5973,6.9181423e-14,0.0000000
1614.5975,6.9070765e-14,0.0000000
1615.5976,6.8925478e-14,0.0000000
1616.5978,6.8779155e-14,0.0000000
1617.5980,6.8652829e-14,0.0000000
1618.5981,6.8525088e-14,0.0000000
1619.5983,6.8378430e-14,0.0000000
1620.5985,6.8240210e-14,0.0000000
1621.5986,6.8120916e-14,0.0000000
1622.5988,6.7980109e-14,0.0000000
1623.5990,6.7843048e-14,0.0000000
1624.5991,6.7725299e-14,0.0000000
1625.5993,6.7588256e-14,0.0000000
1626.5995,6.7445965e-14,0.0000000
1627.5996,6.7322052e-14,0.0000000
1628.5998,6.7186105e-14,0.0000000
1629.6000,6.7064194e-14,0.0000000
1630.6001,6.6930607e-14,0.0000000
1631.6003,6.6789246e-14,0.0000000
1632.6005,6.6675188e-14,0.0000000
1633.6007,6.6533443e-14,0.0000000
1634.6008,6.6400118e-14,0.0000000
1635.6010,6.6281884e-14,0.0000000
1636.6012,6.6146930e-14,0.0000000
1637.6013,6.6009238e-14,0.0000000
1638.6015,6.5900900e-14,0.0000000
1639.6017,6.5759014e-14,0.0000000
1640.6018,6.5648925e-14,0.0000000
1641.6020,6.5508559e-14,0.0000000
1642.6022,6.5377384e-14,0.0000000
1643.6024,6.5260718e-14,0.0000000
1644.6025,6.5126905e-14,0.0000000
1645.6027,6.5004263e-14,0.0000000
1646.6029,6.4877096e-14,0.0000000
1647.6030,6.4737158e-14,0.0000000
1648.6032,6.4628591e-14,0.0000000
1649.6034,6.4487344e-14,0.0000000
1650.6036,6.4377488e-14,0.0000000
1651.6037,6.4243750e-14,0.0000000
1652.6039,6.4127671e-14,0.0000000
1653.6041,6.3999850e-14,0.0000000
1654.6043,6.3868692e-14,0.0000000
1655.6044,6.3751514e-14,0.0000000
1656.6046,6.3626158e-14,0.0000000
1657.6048,6.3499700e-14,0.0000000
1658.6049,6.3381495e-14,0.0000000
1659.6051,6.3261651e-14,0.0000000
1660.6053,6.3127949e-14,0.0000000
1661.6055,6.3017642e-14,0.0000000
1662.6056,6.2905312e-14,0.0000000
1663.6058,6.2768505e-14,0.0000000
1664.6060,6.2656861e-14,0.0000000
1665.6062,6.2527146e-14,0.0000000
1666.6064,6.2412284e-14,0.0000000
1667.6065,6.2279896e-14,0.0000000
1668.6067,6.2175729e-14,0.0000000
1669.6069,6.2035876e-14,0.0000000
1670.6071,6.1922663e-14,0.0000000
1671.6072,6.1817589e-14,0.0000000
1672.6074,6.1691114e-14,0.0000000
1673.6076,6.1567489e-14,0.0000000
1674.6078,6.1444417e-14,0.0000000
1675.6079,6.1341698e-14,0.0000000
1676.6081,6.1210221e-14,0.0000000
1677.6083,6.1096179e-14,0.0000000
1678.6085,6.0968207e-14,0.0000000
1679.6087,6.0864852e-14,0.0000000
1680.6088,6.0744808e-14,0.0000000
1681.6090,6.0620906e-14,0.0000000
1682.6092,6.0515536e-14,0.0000000
1683.6094,6.0391455e-14,0.0000000
1684.6095,6.0284306e-14,0.0000000
1685.6097,6.0150866e-14,0.0000000
1686.6099,6.0045156e-14,0.0000000
1687.6101,5.9928545e-14,0.0000000
1688.6103,5.9813155e-14,0.0000000
1689.6104,5.9711645e-14,0.0000000
1690.6106,5.9590884e-14,0.0000000
1691.6108,5.9466523e-14,0.0000000
1692.6110,5.9360745e-14,0.0000000
1693.6112,5.9236380e-14,0.0000000
1694.6114,5.9133297e-14,0.0000000
1695.6115,5.9019337e-14,0.0000000
1696.6117,5.8901974e-14,0.0000000
1697.6119,5.8800127e-14,0.0000000
1698.6121,5.8675034e-14,0.0000000
1699.6123,5.8554222e-14,0.0000000
1700.6124,5.8452278e-14,0.0000000
1701.6126,5.8350193e-14,0.0000000
1702.6128,5.8219111e-14,0.0000000
1703.6130,5.8117094e-14,0.0000000
1704.6132,5.8009457e-14,0.0000000
1705.6134,5.7889731e-14,0.0000000
1706.6135,5.7785019e-14,0.0000000
1707.6137,5.7682288e-14,0.0000000
1708.6139,5.7562434e-14,0.0000000
1709.6141,5.7451884e-14,0.0000000
1710.6143,5.7352918e-14,0.0000000
1711.6145,5.7250666e-14,0.0000000
1712.6146,5.7119271e-14,0.0000000
1713.6148,5.7016958e-14,0.0000000
1714.6150,5.6916404e-14,0.0000000
1715.6152,5.6806404e-14,0.0000000
1716.6154,5.6694595e-14,0.0000000
1717.6156,5.6590578e-14,0.0000000
1718.6158,5.6489935e-14,0.0000000
1719.6159,5.6367295e-14,0.0000000
1720.6161,5.6267888e-14,0.0000000
1721.6163,5.6165631e-14,0.0000000
1722.6165,5.6050089e-14,0.0000000
1723.6167,5.5940263e-14,0.0000000
1724.6169,5.5840697e-14,0.0000000
1725.6171,5.5744405e-14,0.0000000
1726.6172,5.5635323e-14,0.0000000
1727.6174,5.5519044e-14,0.0000000
1728.6176,5.5418318e-14,0.0000000
1729.6178,5.5316618e-14,0.0000000
1730.6180,5.5216837e-14,0.0000000
1731.6182,5.5093905e-14,0.0000000
1732.6184,5.4992107e-14,0.0000000
1733.6186,5.4894509e-14,0.0000000
1734.6187,5.4793676e-14,0.0000000
1735.6189,5.4673084e-14,0.0000000
1736.6191,5.4568815e-14,0.0000000
1737.6193,5.4468777e-14,0.0000000
1738.6195,5.4370922e-14,0.0000000
1739.6197,5.4285185e-14,0.0000000
1740.6199,5.4168984e-14,0.0000000
1741.6201,5.4065001e-14,0.0000000
1742.6203,5.3961510e-14,0.0000000
1743.6204,5.3858372e-14,0.0000000
1744.6206,5.3758913e-14,0.0000000
1745.6208,5.3658761e-14,0.0000000
1746.6210,5.3555070e-14,0.0000000
1747.6212,5.3451239e-14,0.0000000
1748.6214,5.3351104e-14,0.0000000
1749.6216,5.3250839e-14,0.0000000
1750.6218,5.3150489e-14,0.0000000
1751.6220,5.3057342e-14,0.0000000
1752.6222,5.2966070e-14,0.0000000
1753.6224,5.2865677e-14,0.0000000
1754.6225,5.2741651e-14,0.0000000
1755.6227,5.2644127e-14,0.0000000
1756.6229,5.2545332e-14,0.0000000
1757.6231,5.2459466e-14,0.0000000
1758.6233,5.2360624e-14,0.0000000
1759.6235,5.2260797e-14,0.0000000
1760.6237,5.2159370e-14,0.0000000
1761.6239,5.2055870e-14,0.0000000
1762.6241,5.1965422e-14,0.0000000
1763.6243,5.1868441e-14,0.0000000
1764.6245,5.1770271e-14,0.0000000
1765.6247,5.1672418e-14,0.0000000
1766.6249,5.1575046e-14,0.0000000
1767.6251,5.1490649e-14,0.0000000
1768.6252,5.1386965e-14,0.0000000
1769.6254,5.1283494e-14,0.0000000
1770.6256,5.1183327e-14,0.0000000
1771.6258,5.1092879e-14,0.0000000
1772.6260,5.0995433e-14,0.0000000
1773.6262,5.0900423e-14,0.0000000
1774.6264,5.0802246e-14,0.0000000
1775.6266,5.0717260e-14,0.0000000
1776.6268,5.0617661e-14,0.0000000
1777.6270,5.0515389e-14,0.0000000
1778.6272,5.0420448e-14,0.0000000
1779.6274,5.0333056e-14,0.0000000
1780.6276,5.0232996e-14,0.0000000
1781.6278,5.0135721e-14,0.0000000
1782.6280,5.0050335e-14,0.0000000
1783.6282,4.9950997e-14,0.0000000
1784.6284,4.9856188e-14,0.0000000
1785.6286,4.9768844e-14,0.0000000
1786.6288,4.9671047e-14,0.0000000
1787.6290,4.9573906e-14,0.0000000
1788.6291,4.9488833e-14,0.0000000
1789.6293,4.9393831e-14,0.0000000
1790.6295,4.9301360e-14,0.0000000
1791.6297,4.9211832e-14,0.0000000
1792.6299,4.9114125e-14,0.0000000
1793.6301,4.9028403e-14,0.0000000
1794.6303,4.8934307e-14,0.0000000
1795.6305,4.8836839e-14,0.0000000
1796.6307,4.8754345e-14,0.0000000
1797.6309,4.8656431e-14,0.0000000
1798.6311,4.8569006e-14,0.0000000
1799.6313,4.8478132e-14,0.0000000
1800.6315,4.8385075e-14,0.0000000
1801.6317,4.8296998e-14,0.0000000
1802.6319,4.8207067e-14,0.0000000
1803.6321,4.8112700e-14,0.0000000
1804.6323,4.8029956e-14,0.0000000
1805.6325,4.7936349e-14,0.0000000
1806.6327,4.7842151e-14,0.0000000
1807.6329,4.7761120e-14,0.0000000
1808.6331,4.7665137e-14,0.0000000
1809.6333,4.7584857e-14,0.0000000
1810.6335,4.7489023e-14,0.0000000
1811.6337,4.7395620e-14,0.0000000
1812.6339,4.7315223e-14,0.0000000
1813.6341,4.7222372e-14,0.0000000
1814.6343,4.7139868e-14,0.0000000
1815.6345,4.7046688e-14,0.0000000
1816.6347,4.6965448e-14,0.0000000
1817.6349,4.6874180e-14,0.0000000
1818.6351,4.6785166e-14,0.0000000
1819.6353,4.6700794e-14,0.0000000
1820.6355,4.6604496e-14,0.0000000
1821.6357,4.6527303e-14,0.0000000
1822.6359,4.6433216e-14,0.0000000
1823.6361,4.6353135e-14,0.0000000
1824.6363,4.6259612e-14,0.0000000
1825.6365,4.6181739e-14,0.0000000
1826.6367,4.6087931e-14,0.0000000
1827.6369,4.6008376e-14,0.0000000
1828.6371,4.5915285e-14,0.0000000
1829.6373,4.5836245e-14,0.0000000
1830.6375,4.5744912e-14,0.0000000
1831.6377,4.5664563e-14,0.0000000
1832.6379,4.5574049e-14,0.0000000
1833.6381,4.5492665e-14,0.0000000
1834.6383,4.5404448e-14,0.0000000
1835.6386,4.5324892e-14,0.0000000
1836.6388,4.5234161e-14,0.0000000
1837.6390,4.5154801e-14,0.0000000
1838.6392,4.5068836e-14,0.0000000
1839.6394,4.4985544e-14,0.0000000
1840.6396,4.4905952e-14,0.0000000
1841.6398,4.4815068e-14,0.0000000
1842.6400,4.4738991e-14,0.0000000
1843.6402,4.4646938e-14,0.0000000
1844.6404,4.4571243e-14,0.0000000
1845.6406,4.4481317e-14,0.0000000
1846.6408,4.4405275e-14,0.0000000
1847.6410,4.4316503e-14,0.0000000
1848.6412,4.4237428e-14,0.0000000
1849.6414,4.4149820e-14,0.0000000
1850.6416,4.4072233e-14,0.0000000
1851.6418,4.3982350e-14,0.0000000
1852.6420,4.3907675e-14,0.0000000
1853.6422,4.3830218e-14,0.0000000
1854.6424,4.3740620e-14,0.0000000
1855.6426,4.3665330e-14,0.0000000
1856.6428,4.3575853e-14,0.0000000
1857.6431,4.3501292e-14,0.0000000
1858.6433,4.3417095e-14,0.0000000
1859.6435,4.3335374e-14,0.0000000
1860.6437,4.3261534e-14,0.0000000
1861.6439,4.3172409e-14,0.0000000
1862.6441,4.3095723e-14,0.0000000
1863.6443,4.3015714e-14,0.0000000
1864.6445,4.2932342e-14,0.0000000
1865.6447,4.2858215e-14,0.0000000
1866.6449,4.2771573e-14,0.0000000
1867.6451,4.2694905e-14,0.0000000
1868.6453,4.2616018e-14,0.0000000
1869.6455,4.2532204e-14,0.0000000
1870.6457,4.2459831e-14,0.0000000
1871.6460,4.2376965e-14,0.0000000
1872.6462,4.2296237e-14,0.0000000
1873.6464,4.2222062e-14,0.0000000
1874.6466,4.2140602e-14,0.0000000
1875.6468,4.2058746e-14,0.0000000
1876.6470,4.1986463e-14,0.0000000
1877.6472,4.1902444e-14,0.0000000
1878.6474,4.1823423e-14,0.0000000
1879.6476,4.1749277e-14,0.0000000
1880.6478,4.1667233e-14,0.0000000
1881.6480,4.1590473e-14,0.0000000
1882.6482,4.1515207e-14,0.0000000
1883.6485,4.1442036e-14,0.0000000
1884.6487,4.1355055e-14,0.0000000
1885.6489,4.1282376e-14,0.0000000
1886.6491,4.1208648e-14,0.0000000
1887.6493,4.1123549e-14,0.0000000
1888.6495,4.1051798e-14,0.0000000
1889.6497,4.0974965e-14,0.0000000
1890.6499,4.0893327e-14,0.0000000
1891.6501,4.0821257e-14,0.0000000
1892.6503,4.0748522e-14,0.0000000
1893.6506,4.0664638e-14,0.0000000
1894.6508,4.0592461e-14,0.0000000
1895.6510,4.0520929e-14,0.0000000
1896.6512,4.0437246e-14,0.0000000
1897.6514,4.0362758e-14,0.0000000
1898.6516,4.0293058e-14,0.0000000
1899.6518,4.0214355e-14,0.0000000
1900.6520,4.0135152e-14,0.0000000
1901.6522,4.0063798e-14,0.0000000
1902.6525,3.9993154e-14,0.0000000
1903.6527,3.9909069e-14,0.0000000
1904.6529,3.9836188e-14,0.0000000
1905.6531,3.9764354e-14,0.0000000
1906.6533,3.9689299e-14,0.0000000
1907.6535,3.9612692e-14,0.0000000
1908.6537,3.9540601e-14,0.0000000
1909.6539,3.9469018e-14,0.0000000
1910.6541,3.9395561e-14,0.0000000
1911.6544,3.9313863e-14,0.0000000
1912.6546,3.9244869e-14,0.0000000
1913.6548,3.9173905e-14,0.0000000
1914.6550,3.9104957e-14,0.0000000
1915.6552,3.9018057e-14,0.0000000
1916.6554,3.8948718e-14,0.0000000
1917.6556,3.8878251e-14,0.0000000
1918.6558,3.8809452e-14,0.0000000
1919.6561,3.8725359e-14,0.0000000
1920.6563,3.8655714e-14,0.0000000
1921.6565,3.8585466e-14,0.0000000
1922.6567,3.8513891e-14,0.0000000
1923.6569,3.8444969e-14,0.0000000
1924.6571,3.8363126e-14,0.0000000
1925.6573,3.8294737e-14,0.0000000
1926.6576,3.8224766e-14,0.0000000
1927.6578,3.8152919e-14,0.0000000
1928.6580,3.8084181e-14,0.0000000
1929.6582,3.8010881e-14,0.0000000
1930.6584,3.7935969e-14,0.0000000
1931.6586,3.7864051e-14,0.0000000
1932.6588,3.7795871e-14,0.0000000
1933.6591,3.7724444e-14,0.0000000
1934.6593,3.7650367e-14,0.0000000
1935.6595,3.7578006e-14,0.0000000
1936.6597,3.7510215e-14,0.0000000
