wave,flux,fluxerr
1350.5642,1.7434613e-14,0.0000000
1351.5643,1.7393262e-14,0.0000000
1352.5644,1.7351913e-14,0.0000000
1353.5644,1.7309615e-14,0.0000000
1354.5645,1.7266455e-14,0.0000000
1355.5646,1.7223446e-14,0.0000000
1356.5647,1.7183181e-14,0.0000000
1357.5648,1.7141457e-14,0.0000000
1358.5648,1.7100765e-14,0.0000000
1359.5649,1.7060907e-14,0.0000000
1360.5650,1.7020823e-14,0.0000000
1361.5651,1.6976679e-14,0.0000000
1362.5652,1.6932199e-14,0.0000000
1363.5652,1.6895689e-14,0.0000000
1364.5653,1.6852235e-14,0.0000000
1365.5654,1.6809284e-14,0.0000000
1366.5655,1.6772021e-14,0.0000000
1367.5656,1.6728658e-14,0.0000000
1368.5657,1.6692163e-14,0.0000000
1369.5657,1.6648791e-14,0.0000000
1370.5658,1.6612264e-14,0.0000000
1371.5659,1.6568882e-14,0.0000000
1372.5660,1.6532425e-14,0.0000000
1373.5661,1.6491921e-14,0.0000000
1374.5662,1.6451435e-14,0.0000000
1375.5663,1.6411187e-14,0.0000000
1376.5663,1.6372435e-14,0.0000000
1377.5664,1.6330506e-14,0.0000000
1378.5665,1.6292757e-14,0.0000000
1379.5666,1.6254189e-14,0.0000000
1380.5667,1.6213975e-14,0.0000000
1381.5668,1.6176347e-14,0.0000000
1382.5669,1.6140226e-14,0.0000000
1383.5670,1.6097330e-14,0.0000000
1384.5671,1.6061443e-14,0.0000000
1385.5671,1.6020801e-14,0.0000000
1386.5672,1.5982754e-14,0.0000000
1387.5673,1.5945186e-14,0.0000000
1388.5674,1.5907125e-14,0.0000000
1389.5675,1.5868530e-14,0.0000000
1390.5676,1.5831531e-14,0.0000000
1391.5677,1.5792930e-14,0.0000000
1392.5678,1.5755871e-14,0.0000000
1393.5679,1.5717943e-14,0.0000000
1394.5680,1.5680327e-14,0.0000000
1395.5681,1.5643249e-14,0.0000000
1396.5682,1.5606151e-14,0.0000000
1397.5683,1.5568850e-14,0.0000000
1398.5684,1.5531620e-14,0.0000000
1399.5685,1.5494669e-14,0.0000000
1400.5686,1.5457881e-14,0.0000000
1401.5687,1.5421520e-14,0.0000000
1402.5688,1.5385033e-14,0.0000000
1403.5689,1.5347993e-14,0.0000000
1404.5690,1.5312198e-14,0.0000000
1405.5691,1.5275452e-14,0.0000000
1406.5692,1.5239483e-14,0.0000000
1407.5693,1.5203724e-14,0.0000000
1408.5694,1.5167388e-14,0.0000000
1409.5695,1.5131465e-14,0.0000000
1410.5696,1.5096142e-14,0.0000000
1411.5697,1.5060387e-14,0.0000000
1412.5698,1.5024722e-14,0.0000000
1413.5699,1.4989115e-14,0.0000000
1414.5700,1.4953896e-14,0.0000000
1415.5701,1.4918735e-14,0.0000000
1416.5702,1.4883830e-14,0.0000000
1417.5703,1.4848501e-14,0.0000000
1418.5704,1.4813493e-14,0.0000000
1419.5705,1.4779113e-14,0.0000000
1420.5706,1.4744103e-14,0.0000000
1421.5707,1.4709459e-14,0.0000000
1422.5708,1.4675086e-14,0.0000000
1423.5709,1.4640474e-14,0.0000000
1424.5711,1.4606313e-14,0.0000000
1425.5712,1.4572100e-14,0.0000000
1426.5713,1.4537742e-14,0.0000000
1427.5714,1.4503580e-14,0.0000000
1428.5715,1.4469926e-14,0.0000000
1429.5716,1.4436065e-14,0.0000000
1430.5717,1.4402221e-14,0.0000000
1431.5718,1.4368842e-14,0.0000000
1432.5719,1.4334985e-14,0.0000000
1433.5720,1.4301421e-14,0.0000000
1434.5722,1.4268390e-14,0.0000000
1435.5723,1.4234937e-14,0.0000000
1436.5724,1.4201844e-14,0.0000000
1437.5725,1.4168900e-14,0.0000000
1438.5726,1.4135894e-14,0.0000000
1439.5727,1.4102680e-14,0.0000000
1440.5728,1.4070206e-14,0.0000000
1441.5729,1.4037729e-14,0.0000000
1442.5731,1.4005189e-14,0.0000000
1443.5732,1.3972645e-14,0.0000000
1444.5733,1.3940131e-14,0.0000000
1445.5734,1.3907636e-14,0.0000000
1446.5735,1.3875323e-14,0.0000000
1447.5736,1.3843032e-14,0.0000000
1448.5738,1.3811551e-14,0.0000000
1449.5739,1.3779107e-14,0.0000000
1450.5740,1.3747142e-14,0.0000000
1451.5741,1.3715411e-14,0.0000000
1452.5742,1.3683648e-14,0.0000000
1453.5743,1.3652793e-14,0.0000000
1454.5745,1.3620997e-14,0.0000000
1455.5746,1.3589314e-14,0.0000000
1456.5747,1.3557662e-14,0.0000000
1457.5748,1.3527278e-14,0.0000000
1458.5749,1.3495535e-14,0.0000000
1459.5751,1.3465005e-14,0.0000000
1460.5752,1.3433451e-14,0.0000000
1461.5753,1.3403086e-14,0.0000000
1462.5754,1.3371659e-14,0.0000000
1463.5756,1.3341251e-14,0.0000000
1464.5757,1.3310905e-14,0.0000000
1465.5758,1.3280695e-14,0.0000000
1466.5759,1.3249563e-14,0.0000000
1467.5760,1.3218924e-14,0.0000000
1468.5762,1.3188802e-14,0.0000000
1469.5763,1.3158728e-14,0.0000000
1470.5764,1.3128662e-14,0.0000000
1471.5765,1.3098590e-14,0.0000000
1472.5767,1.3068808e-14,0.0000000
1473.5768,1.3038859e-14,0.0000000
1474.5769,1.3008931e-14,0.0000000
1475.5770,1.2979303e-14,0.0000000
1476.5772,1.2949948e-14,0.0000000
1477.5773,1.2920500e-14,0.0000000
1478.5774,1.2890732e-14,0.0000000
1479.5776,1.2861766e-14,0.0000000
1480.5777,1.2832098e-14,0.0000000
1481.5778,1.2802925e-14,0.0000000
1482.5779,1.2774208e-14,0.0000000
1483.5781,1.2744419e-14,0.0000000
1484.5782,1.2716064e-14,0.0000000
1485.5783,1.2686953e-14,0.0000000
1486.5785,1.2658437e-14,0.0000000
1487.5786,1.2629603e-14,0.0000000
1488.5787,1.2601258e-14,0.0000000
1489.5788,1.2572698e-14,0.0000000
1490.5790,1.2544108e-14,0.0000000
1491.5791,1.2515654e-14,0.0000000
1492.5792,1.2487278e-14,0.0000000
1493.5794,1.2459241e-14,0.0000000
1494.5795,1.2430900e-14,0.0000000
1495.5796,1.2403154e-14,0.0000000
1496.5798,1.2374432e-14,0.0000000
1497.5799,1.2346704e-14,0.0000000
1498.5800,1.2319019e-14,0.0000000
1499.5802,1.2291346e-14,0.0000000
1500.5803,1.2263677e-14,0.0000000
1501.5804,1.2236007e-14,0.0000000
1502.5806,1.2208448e-14,0.0000000
1503.5807,1.2181065e-14,0.0000000
1504.5809,1.2153354e-14,0.0000000
1505.5810,1.2126112e-14,0.0000000
1506.5811,1.2099137e-14,0.0000000
1507.5813,1.2072192e-14,0.0000000
1508.5814,1.2044648e-14,0.0000000
1509.5815,1.2018014e-14,0.0000000
1510.5817,1.1991065e-14,0.0000000
1511.5818,1.1964111e-14,0.0000000
1512.5819,1.1937530e-14,0.0000000
1513.5821,1.1910866e-14,0.0000000
1514.5822,1.1883954e-14,0.0000000
1515.5824,1.1857861e-14,0.0000000
1516.5825,1.1830789e-14,0.0000000
1517.5826,1.1804404e-14,0.0000000
1518.5828,1.1778429e-14,0.0000000
1519.5829,1.1752103e-14,0.0000000
1520.5831,1.1726020e-14,0.0000000
1521.5832,1.1700041e-14,0.0000000
1522.5833,1.1673559e-14,0.0000000
1523.5835,1.1647682e-14,0.0000000
1524.5836,1.1622324e-14,0.0000000
1525.5838,1.1595829e-14,0.0000000
1526.5839,1.1570022e-14,0.0000000
1527.5841,1.1544579e-14,0.0000000
1528.5842,1.1519214e-14,0.0000000
1529.5843,1.1493825e-14,0.0000000
1530.5845,1.1468012e-14,0.0000000
1531.5846,1.1442638e-14,0.0000000
1532.5848,1.1417415e-14,0.0000000
1533.5849,1.1392119e-14,0.0000000
1534.5851,1.1366834e-14,0.0000000
1535.5852,1.1341539e-14,0.0000000
1536.5854,1.1316130e-14,0.0000000
1537.5855,1.1291431e-14,0.0000000
1538.5856,1.1266469e-14,0.0000000
1539.5858,1.1241458e-14,0.0000000
1540.5859,1.1216848e-14,0.0000000
1541.5861,1.1191986e-14,0.0000000
1542.5862,1.1167350e-14,0.0000000
1543.5864,1.1142724e-14,0.0000000
1544.5865,1.1118375e-14,0.0000000
1545.5867,1.1093531e-14,0.0000000
1546.5868,1.1069758e-14,0.0000000
1547.5870,1.1045175e-14,0.0000000
1548.5871,1.1020874e-14,0.0000000
1549.5873,1.0996598e-14,0.0000000
1550.5874,1.0972419e-14,0.0000000
1551.5876,1.0948255e-14,0.0000000
1552.5877,1.0924553e-14,0.0000000
1553.5879,1.0900361e-14,0.0000000
1554.5880,1.0876665e-14,0.0000000
1555.5882,1.0852556e-14,0.0000000
1556.5883,1.0828764e-14,0.0000000
1557.5885,1.0805109e-14,0.0000000
1558.5886,1.0781563e-14,0.0000000
1559.5888,1.0758213e-14,0.0000000
1560.5889,1.0734810e-14,0.0000000
1561.5891,1.0711319e-14,0.0000000
1562.5892,1.0687981e-14,0.0000000
1563.5894,1.0664804e-14,0.0000000
1564.5895,1.0641735e-14,0.0000000
1565.5897,1.0618520e-14,0.0000000
1566.5898,1.0594924e-14,0.0000000
1567.5900,1.0571780e-14,0.0000000
1568.5901,1.0548825e-14,0.0000000
1569.5903,1.0526136e-14,0.0000000
1570.5904,1.0503233e-14,0.0000000
1571.5906,1.0480295e-14,0.0000000
1572.5908,1.0457533e-14,0.0000000
1573.5909,1.0435108e-14,0.0000000
1574.5911,1.0412105e-14,0.0000000
1575.5912,1.0390284e-14,0.0000000
1576.5914,1.0367239e-14,0.0000000
1577.5915,1.0344627e-14,0.0000000
1578.5917,1.0322450e-14,0.0000000
1579.5918,1.0300359e-14,0.0000000
1580.5920,1.0278268e-14,0.0000000
1581.5922,1.0255281e-14,0.0000000
1582.5923,1.0233782e-14,0.0000000
1583.5925,1.0211680e-14,0.0000000
1584.5926,1.0189344e-14,0.0000000
1585.5928,1.0167411e-14,0.0000000
1586.5930,1.0145776e-14,0.0000000
1587.5931,1.0123788e-14,0.0000000
1588.5933,1.0101813e-14,0.0000000
1589.5934,1.0080188e-14,0.0000000
1590.5936,1.0058189e-14,0.0000000
1591.5937,1.0036733e-14,0.0000000
1592.5939,1.0015315e-14,0.0000000
1593.5941,9.9938744e-15,0.0000000
1594.5942,9.9721108e-15,0.0000000
1595.5944,9.9508183e-15,0.0000000
1596.5945,9.9297628e-15,0.0000000
1597.5947,9.9085182e-15,0.0000000
1598.5949,9.8870520e-15,0.0000000
1599.5950,9.8660982e-15,0.0000000
1600.5952,9.8451436e-15,0.0000000
1601.5954,9.8240094e-15,0.0000000
1602.5955,9.8026999e-15,0.0000000
1603.5957,9.7818268e-15,0.0000000
1604.5958,9.7608149e-15,0.0000000
1605.5960,9.7404874e-15,0.0000000
1606.5962,9.7195217e-15,0.0000000
1607.5963,9.6985362e-15,0.0000000
1608.5965,9.6779736e-15,0.0000000
1609.5967,9.6576494e-15,0.0000000
1610.5968,9.6367390e-15,0.0000000
1611.5970,9.6161179e-15,0.0000000
1612.5971,9.5959247e-15,0.0000000
1613.5973,9.5750143e-15,0.0000000
1614.5975,9.5555919e-15,0.0000000
1615.5976,9.5346107e-15,0.0000000
1616.5978,9.5147566e-15,0.0000000
1617.5980,9.4941446e-15,0.0000000
1618.5981,9.4744175e-15,0.0000000
1619.5983,9.4542045e-15,0.0000000
1620.5985,9.4338671e-15,0.0000000
1621.5986,9.4142114e-15,0.0000000
1622.5988,9.3945529e-15,0.0000000
1623.5990,9.3739888e-15,0.0000000
1624.5991,9.3542150e-15,0.0000000
1625.5993,9.3346379e-15,0.0000000
1626.5995,9.3150043e-15,0.0000000
1627.5996,9.2953984e-15,0.0000000
1628.5998,9.2760173e-15,0.0000000
1629.6000,9.2564401e-15,0.0000000
1630.6001,9.2367920e-15,0.0000000
1631.6003,9.2174284e-15,0.0000000
1632.6005,9.1978592e-15,0.0000000
1633.6007,9.1785005e-15,0.0000000
1634.6008,9.1589822e-15,0.0000000
1635.6010,9.1400690e-15,0.0000000
1636.6012,9.1206775e-15,0.0000000
1637.6013,9.1017492e-15,0.0000000
1638.6015,9.0826519e-15,0.0000000
1639.6017,9.0634238e-15,0.0000000
1640.6018,9.0445223e-15,0.0000000
1641.6020,9.0255782e-15,0.0000000
1642.6022,9.0064533e-15,0.0000000
1643.6024,8.9875197e-15,0.0000000
1644.6025,8.9683578e-15,0.0000000
1645.6027,8.9501224e-15,0.0000000
1646.6029,8.9311594e-15,0.0000000
1647.6030,8.9126660e-15,0.0000000
1648.6032,8.8937490e-15,0.0000000
1649.6034,8.8755008e-15,0.0000000
1650.6036,8.8568485e-15,0.0000000
1651.6037,8.8380813e-15,0.0000000
1652.6039,8.8198506e-15,0.0000000
1653.6041,8.8014438e-15,0.0000000
1654.6043,8.7832172e-15,0.0000000
1655.6044,8.7648592e-15,0.0000000
1656.6046,8.7466182e-15,0.0000000
1657.6048,8.7283748e-15,0.0000000
1658.6049,8.7101279e-15,0.0000000
1659.6051,8.6920864e-15,0.0000000
1660.6053,8.6737396e-15,0.0000000
1661.6055,8.6560720e-15,0.0000000
1662.6056,8.6384902e-15,0.0000000
1663.6058,8.6201163e-15,0.0000000
1664.6060,8.6020911e-15,0.0000000
1665.6062,8.5844062e-15,0.0000000
1666.6064,8.5668905e-15,0.0000000
1667.6065,8.5492729e-15,0.0000000
1668.6067,8.5311025e-15,0.0000000
1669.6069,8.5130174e-15,0.0000000
1670.6071,8.4954942e-15,0.0000000
1671.6072,8.4781583e-15,0.0000000
1672.6074,8.4605572e-15,0.0000000
1673.6076,8.4430203e-15,0.0000000
1674.6078,8.4258367e-15,0.0000000
1675.6079,8.4087329e-15,0.0000000
1676.6081,8.3915843e-15,0.0000000
1677.6083,8.3738738e-15,0.0000000
1678.6085,8.3566162e-15,0.0000000
1679.6087,8.3393475e-15,0.0000000
1680.6088,8.3220434e-15,0.0000000
1681.6090,8.3050939e-15,0.0000000
1682.6092,8.2878472e-15,0.0000000
1683.6094,8.2707564e-15,0.0000000
1684.6095,8.2538195e-15,0.0000000
1685.6097,8.2371641e-15,0.0000000
1686.6099,8.2200799e-15,0.0000000
1687.6101,8.2035558e-15,0.0000000
1688.6103,8.1864898e-15,0.0000000
1689.6104,8.1698476e-15,0.0000000
1690.6106,8.1529931e-15,0.0000000
1691.6108,8.1360660e-15,0.0000000
1692.6110,8.1197582e-15,0.0000000
1693.6112,8.1032242e-15,0.0000000
1694.6114,8.0863551e-15,0.0000000
1695.6115,8.0696869e-15,0.0000000
1696.6117,8.0534482e-15,0.0000000
1697.6119,8.0370350e-15,0.0000000
1698.6121,8.0206389e-15,0.0000000
1699.6123,8.0041747e-15,0.0000000
1700.6124,7.9878259e-15,0.0000000
1701.6126,7.9714800e-15,0.0000000
1702.6128,7.9551942e-15,0.0000000
1703.6130,7.9395649e-15,0.0000000
1704.6132,7.9231273e-15,0.0000000
1705.6134,7.9068242e-15,0.0000000
1706.6135,7.8910257e-15,0.0000000
1707.6137,7.8749684e-15,0.0000000
1708.6139,7.8585205e-15,0.0000000
1709.6141,7.8427316e-15,0.0000000
1710.6143,7.8268943e-15,0.0000000
1711.6145,7.8111287e-15,0.0000000
1712.6146,7.7955652e-15,0.0000000
1713.6148,7.7796762e-15,0.0000000
1714.6150,7.7636261e-15,0.0000000
1715.6152,7.7479158e-15,0.0000000
1716.6154,7.7321275e-15,0.0000000
1717.6156,7.7168522e-15,0.0000000
1718.6158,7.7014171e-15,0.0000000
1719.6159,7.6849579e-15,0.0000000
1720.6161,7.6700023e-15,0.0000000
1721.6163,7.6540636e-15,0.0000000
1722.6165,7.6389829e-15,0.0000000
1723.6167,7.6233836e-15,0.0000000
1724.6169,7.6082984e-15,0.0000000
1725.6171,7.5927087e-15,0.0000000
1726.6172,7.5776238e-15,0.0000000
1727.6174,7.5620326e-15,0.0000000
1728.6176,7.5469379e-15,0.0000000
1729.6178,7.5317628e-15,0.0000000
1730.6180,7.5162561e-15,0.0000000
1731.6182,7.5013597e-15,0.0000000
1732.6184,7.4869163e-15,0.0000000
1733.6186,7.4716030e-15,0.0000000
1734.6187,7.4565128e-15,0.0000000
1735.6189,7.4414237e-15,0.0000000
1736.6191,7.4270326e-15,0.0000000
1737.6193,7.4118541e-15,0.0000000
1738.6195,7.3967610e-15,0.0000000
1739.6197,7.3820334e-15,0.0000000
1740.6199,7.3675750e-15,0.0000000
1741.6201,7.3526151e-15,0.0000000
1742.6203,7.3382131e-15,0.0000000
1743.6204,7.3233871e-15,0.0000000
1744.6206,7.3085084e-15,0.0000000
1745.6208,7.2940861e-15,0.0000000
1746.6210,7.2796841e-15,0.0000000
1747.6212,7.2651604e-15,0.0000000
1748.6214,7.2508035e-15,0.0000000
1749.6216,7.2361460e-15,0.0000000
1750.6218,7.2219301e-15,0.0000000
1751.6220,7.2072688e-15,0.0000000
1752.6222,7.1928533e-15,0.0000000
1753.6224,7.1788134e-15,0.0000000
1754.6225,7.1642236e-15,0.0000000
1755.6227,7.1498911e-15,0.0000000
1756.6229,7.1355607e-15,0.0000000
1757.6231,7.1214662e-15,0.0000000
1758.6233,7.1071358e-15,0.0000000
1759.6235,7.0930407e-15,0.0000000
1760.6237,7.0797019e-15,0.0000000
1761.6239,7.0652174e-15,0.0000000
1762.6241,7.0514618e-15,0.0000000
1763.6243,7.0378211e-15,0.0000000
1764.6245,7.0231964e-15,0.0000000
1765.6247,7.0093856e-15,0.0000000
1766.6249,6.9957743e-15,0.0000000
1767.6251,6.9817607e-15,0.0000000
1768.6252,6.9677950e-15,0.0000000
1769.6254,6.9541427e-15,0.0000000
1770.6256,6.9405519e-15,0.0000000
1771.6258,6.9271363e-15,0.0000000
1772.6260,6.9131795e-15,0.0000000
1773.6262,6.8990415e-15,0.0000000
1774.6264,6.8855989e-15,0.0000000
1775.6266,6.8720811e-15,0.0000000
1776.6268,6.8587395e-15,0.0000000
1777.6270,6.8452717e-15,0.0000000
1778.6272,6.8317118e-15,0.0000000
1779.6274,6.8184586e-15,0.0000000
1780.6276,6.8047938e-15,0.0000000
1781.6278,6.7915661e-15,0.0000000
1782.6280,6.7780902e-15,0.0000000
1783.6282,6.7646552e-15,0.0000000
1784.6284,6.7514341e-15,0.0000000
1785.6286,6.7383970e-15,0.0000000
1786.6288,6.7253345e-15,0.0000000
1787.6290,6.7123733e-15,0.0000000
1788.6291,6.6989525e-15,0.0000000
1789.6293,6.6857026e-15,0.0000000
1790.6295,6.6723221e-15,0.0000000
1791.6297,6.6596989e-15,0.0000000
1792.6299,6.6469362e-15,0.0000000
1793.6301,6.6334583e-15,0.0000000
1794.6303,6.6205829e-15,0.0000000
1795.6305,6.6076850e-15,0.0000000
1796.6307,6.5949077e-15,0.0000000
1797.6309,6.5822611e-15,0.0000000
1798.6311,6.5691650e-15,0.0000000
1799.6313,6.5562130e-15,0.0000000
1800.6315,6.5434937e-15,0.0000000
1801.6317,6.5305743e-15,0.0000000
1802.6319,6.5182934e-15,0.0000000
1803.6321,6.5051380e-15,0.0000000
1804.6323,6.4926702e-15,0.0000000
1805.6325,6.4799747e-15,0.0000000
1806.6327,6.4675218e-15,0.0000000
1807.6329,6.4549739e-15,0.0000000
1808.6331,6.4425441e-15,0.0000000
1809.6333,6.4296340e-15,0.0000000
1810.6335,6.4171823e-15,0.0000000
1811.6337,6.4050146e-15,0.0000000
1812.6339,6.3922979e-15,0.0000000
1813.6341,6.3804399e-15,0.0000000
1814.6343,6.3674322e-15,0.0000000
1815.6345,6.3555566e-15,0.0000000
1816.6347,6.3427745e-15,0.0000000
1817.6349,6.3309305e-15,0.0000000
1818.6351,6.3182349e-15,0.0000000
1819.6353,6.3062851e-15,0.0000000
1820.6355,6.2943525e-15,0.0000000
1821.6357,6.2817102e-15,0.0000000
1822.6359,6.2700156e-15,0.0000000
1823.6361,6.2572069e-15,0.0000000
1824.6363,6.2456320e-15,0.0000000
1825.6365,6.2338652e-15,0.0000000
1826.6367,6.2212976e-15,0.0000000
1827.6369,6.2093914e-15,0.0000000
1828.6371,6.1977180e-15,0.0000000
1829.6373,6.1860219e-15,0.0000000
1830.6375,6.1731194e-15,0.0000000
1831.6377,6.1616906e-15,0.0000000
1832.6379,6.1501592e-15,0.0000000
1833.6381,6.1384139e-15,0.0000000
1834.6383,6.1265506e-15,0.0000000
1835.6386,6.1144562e-15,0.0000000
1836.6388,6.1026817e-15,0.0000000
1837.6390,6.0908444e-15,0.0000000
1838.6392,6.0793553e-15,0.0000000
1839.6394,6.0678779e-15,0.0000000
1840.6396,6.0561092e-15,0.0000000
1841.6398,6.0445775e-15,0.0000000
1842.6400,6.0328828e-15,0.0000000
1843.6402,6.0215660e-15,0.0000000
1844.6404,6.0099739e-15,0.0000000
1845.6406,5.9982885e-15,0.0000000
1846.6408,5.9868006e-15,0.0000000
1847.6410,5.9752686e-15,0.0000000
1848.6412,5.9639957e-15,0.0000000
1849.6414,5.9525626e-15,0.0000000
1850.6416,5.9413819e-15,0.0000000
1851.6418,5.9300863e-15,0.0000000
1852.6420,5.9184482e-15,0.0000000
1853.6422,5.9074202e-15,0.0000000
1854.6424,5.8961748e-15,0.0000000
1855.6426,5.8845776e-15,0.0000000
1856.6428,5.8738533e-15,0.0000000
1857.6431,5.8623390e-15,0.0000000
1858.6433,5.8513335e-15,0.0000000
1859.6435,5.8402066e-15,0.0000000
1860.6437,5.8289764e-15,0.0000000
1861.6439,5.8178163e-15,0.0000000
1862.6441,5.8064034e-15,0.0000000
1863.6443,5.7956092e-15,0.0000000
1864.6445,5.7846623e-15,0.0000000
1865.6447,5.7738871e-15,0.0000000
1866.6449,5.7629101e-15,0.0000000
1867.6451,5.7518956e-15,0.0000000
1868.6453,5.7409220e-15,0.0000000
1869.6455,5.7299405e-15,0.0000000
1870.6457,5.7194073e-15,0.0000000
1871.6460,5.7083912e-15,0.0000000
1872.6462,5.6976112e-15,0.0000000
1873.6464,5.6870761e-15,0.0000000
1874.6466,5.6761589e-15,0.0000000
1875.6468,5.6652672e-15,0.0000000
1876.6470,5.6548908e-15,0.0000000
1877.6472,5.6440087e-15,0.0000000
1878.6474,5.6329248e-15,0.0000000
1879.6476,5.6226184e-15,0.0000000
1880.6478,5.6119524e-15,0.0000000
1881.6480,5.6009253e-15,0.0000000
1882.6482,5.5907447e-15,0.0000000
1883.6485,5.5800489e-15,0.0000000
1884.6487,5.5698358e-15,0.0000000
1885.6489,5.5589001e-15,0.0000000
1886.6491,5.5481078e-15,0.0000000
1887.6493,5.5382643e-15,0.0000000
1888.6495,5.5278334e-15,0.0000000
1889.6497,5.5174328e-15,0.0000000
1890.6499,5.5071592e-15,0.0000000
1891.6501,5.4963085e-15,0.0000000
1892.6503,5.4860992e-15,0.0000000
1893.6506,5.4759287e-15,0.0000000
1894.6508,5.4655856e-15,0.0000000
1895.6510,5.4555414e-15,0.0000000
1896.6512,5.4453228e-15,0.0000000
1897.6514,5.4348479e-15,0.0000000
1898.6516,5.4243543e-15,0.0000000
1899.6518,5.4146854e-15,0.0000000
1900.6520,5.4041316e-15,0.0000000
1901.6522,5.3943371e-15,0.0000000
1902.6525,5.3841200e-15,0.0000000
1903.6527,5.3741060e-15,0.0000000
1904.6529,5.3638663e-15,0.0000000
1905.6531,5.3540630e-15,0.0000000
1906.6533,5.3438043e-15,0.0000000
1907.6535,5.3337125e-15,0.0000000
1908.6537,5.3240859e-15,0.0000000
1909.6539,5.3141518e-15,0.0000000
1910.6541,5.3037843e-15,0.0000000
1911.6544,5.2941040e-15,0.0000000
1912.6546,5.2843542e-15,0.0000000
1913.6548,5.2744221e-15,0.0000000
1914.6550,5.2643681e-15,0.0000000
1915.6552,5.2546079e-15,0.0000000
1916.6554,5.2447117e-15,0.0000000
1917.6556,5.2350709e-15,0.0000000
1918.6558,5.2255300e-15,0.0000000
1919.6561,5.2156961e-15,0.0000000
1920.6563,5.2057401e-15,0.0000000
1921.6565,5.1961114e-15,0.0000000
1922.6567,5.1869139e-15,0.0000000
1923.6569,5.1768940e-15,0.0000000
1924.6571,5.1672335e-15,0.0000000
1925.6573,5.1575895e-15,0.0000000
1926.6576,5.1483302e-15,0.0000000
1927.6578,5.1384254e-15,0.0000000
1928.6580,5.1287424e-15,0.0000000
1929.6582,5.1197637e-15,0.0000000
1930.6584,5.1098854e-15,0.0000000
1931.6586,5.1001481e-15,0.0000000
1932.6588,5.0913079e-15,0.0000000
1933.6591,5.0814904e-15,0.0000000
1934.6593,5.0719544e-15,0.0000000
1935.6595,5.0621392e-15,0.0000000
1936.6597,5.0535070e-15,0.0000000
