wave,flux
338.000,1.39468e-17
340.000,1.36703e-17
342.000,1.34006e-17
344.000,1.31376e-17
346.000,1.28809e-17
348.000,1.26304e-17
350.000,1.23861e-17
352.000,1.21476e-17
354.000,1.19148e-17
356.000,1.16876e-17
358.000,1.14659e-17
360.000,1.12493e-17
362.000,1.10379e-17
364.000,1.08315e-17
366.000,1.06216e-17
368.000,1.04157e-17
370.000,1.02136e-17
372.000,1.00151e-17
374.000,9.82742e-18
376.000,9.65548e-18
378.000,9.50270e-18
380.000,9.34756e-18
382.000,9.21545e-18
384.000,9.01354e-18
386.000,9.01416e-18
388.000,8.59891e-18
390.000,8.50086e-18
392.000,8.75836e-18
394.000,8.55804e-18
396.000,7.78531e-18
398.000,7.56782e-18
400.000,8.19825e-18
402.000,8.34423e-18
404.000,8.25143e-18
406.000,7.96857e-18
408.000,7.34616e-18
410.000,6.25097e-18
412.000,6.88101e-18
414.000,7.40829e-18
416.000,7.52634e-18
418.000,7.49619e-18
420.000,7.40963e-18
422.000,7.29765e-18
424.000,7.16899e-18
426.000,7.01998e-18
428.000,6.82880e-18
430.000,6.52853e-18
432.000,5.93422e-18
434.000,4.94712e-18
436.000,5.64039e-18
438.000,6.09589e-18
440.000,6.19937e-18
442.000,6.17905e-18
444.000,6.11525e-18
446.000,6.03539e-18
448.000,5.94927e-18
450.000,5.86087e-18
452.000,5.77203e-18
454.000,5.68364e-18
456.000,5.59614e-18
458.000,5.50976e-18
460.000,5.42459e-18
462.000,5.34064e-18
464.000,5.25784e-18
466.000,5.17604e-18
468.000,5.09500e-18
470.000,5.01430e-18
472.000,4.93320e-18
474.000,4.85033e-18
476.000,4.76296e-18
478.000,4.66516e-18
480.000,4.54260e-18
482.000,4.35679e-18
484.000,3.99835e-18
486.000,3.36161e-18
488.000,3.77298e-18
490.000,4.07656e-18
492.000,4.15287e-18
494.000,4.14922e-18
496.000,4.11590e-18
498.000,4.07068e-18
500.000,4.02040e-18
502.000,3.96804e-18
504.000,3.91496e-18
506.000,3.86187e-18
508.000,3.80912e-18
510.000,3.75756e-18
512.000,3.70665e-18
514.000,3.65581e-18
516.000,3.60572e-18
518.000,3.55641e-18
520.000,3.50787e-18
522.000,3.46012e-18
524.000,3.41313e-18
526.000,3.36691e-18
528.000,3.32145e-18
530.000,3.27673e-18
532.000,3.23273e-18
534.000,3.18946e-18
536.000,3.14689e-18
538.000,3.10502e-18
540.000,3.06383e-18
542.000,3.02329e-18
544.000,2.98381e-18
546.000,2.94456e-18
548.000,2.90594e-18
550.000,2.86793e-18
552.000,2.83054e-18
554.000,2.79374e-18
556.000,2.75754e-18
558.000,2.72190e-18
560.000,2.68684e-18
562.000,2.65233e-18
564.000,2.61837e-18
566.000,2.58495e-18
568.000,2.55205e-18
570.000,2.51968e-18
572.000,2.48781e-18
574.000,2.45644e-18
576.000,2.42556e-18
578.000,2.39517e-18
580.000,2.36524e-18
582.000,2.33579e-18
584.000,2.30678e-18
586.000,2.27823e-18
588.000,2.25012e-18
590.000,2.22244e-18
592.000,2.19519e-18
594.000,2.16835e-18
596.000,2.14175e-18
598.000,2.11553e-18
600.000,2.08988e-18
602.000,2.06462e-18
604.000,2.03974e-18
606.000,2.01523e-18
608.000,1.99108e-18
610.000,1.96729e-18
612.000,1.94385e-18
614.000,1.92075e-18
616.000,1.89798e-18
618.000,1.87554e-18
620.000,1.85341e-18
622.000,1.83160e-18
624.000,1.81008e-18
626.000,1.78885e-18
628.000,1.76789e-18
630.000,1.74719e-18
632.000,1.72672e-18
634.000,1.70647e-18
636.000,1.68637e-18
638.000,1.66638e-18
640.000,1.64638e-18
642.000,1.62622e-18
644.000,1.60558e-18
646.000,1.58383e-18
648.000,1.55965e-18
650.000,1.52980e-18
652.000,1.48552e-18
654.000,1.40109e-18
656.000,1.22690e-18
658.000,1.31482e-18
660.000,1.40189e-18
662.000,1.42401e-18
664.000,1.42380e-18
666.000,1.41539e-18
668.000,1.40364e-18
670.000,1.39044e-18
672.000,1.37659e-18
674.000,1.36246e-18
676.000,1.34825e-18
678.000,1.33405e-18
680.000,1.31994e-18
682.000,1.30595e-18
684.000,1.29209e-18
686.000,1.27838e-18
688.000,1.26500e-18
690.000,1.25178e-18
692.000,1.23854e-18
694.000,1.22547e-18
696.000,1.21257e-18
698.000,1.19983e-18
700.000,1.18655e-18
702.000,1.17331e-18
704.000,1.16116e-18
706.000,1.14906e-18
708.000,1.13715e-18
710.000,1.12530e-18
712.000,1.11367e-18
714.000,1.10218e-18
716.000,1.09087e-18
718.000,1.07968e-18
720.000,1.06868e-18
722.000,1.05774e-18
724.000,1.04699e-18
726.000,1.03636e-18
728.000,1.02591e-18
730.000,1.01557e-18
732.000,1.00526e-18
734.000,9.95128e-19
736.000,9.85147e-19
738.000,9.75329e-19
740.000,9.65596e-19
742.000,9.56026e-19
744.000,9.46471e-19
746.000,9.37196e-19
748.000,9.27841e-19
750.000,9.18666e-19
752.000,9.09642e-19
754.000,9.00745e-19
756.000,8.91937e-19
758.000,8.83276e-19
760.000,8.74568e-19
762.000,8.66177e-19
764.000,8.57681e-19
766.000,8.49443e-19
768.000,8.41228e-19
770.000,8.33134e-19
772.000,8.25095e-19
774.000,8.17243e-19
776.000,8.09418e-19
778.000,8.01689e-19
780.000,7.94068e-19
782.000,7.86550e-19
784.000,7.79137e-19
786.000,7.71686e-19
788.000,7.64455e-19
790.000,7.57263e-19
792.000,7.50201e-19
794.000,7.43155e-19
796.000,7.36219e-19
798.000,7.29403e-19
800.000,7.22631e-19
802.000,7.15934e-19
804.000,7.09271e-19
806.000,7.02744e-19
808.000,6.96243e-19
810.000,6.89874e-19
812.000,6.83533e-19
814.000,6.77312e-19
816.000,6.71080e-19
818.000,6.64986e-19
820.000,6.58945e-19
822.000,6.53003e-19
824.000,6.47088e-19
826.000,6.41235e-19
828.000,6.35444e-19
830.000,6.29556e-19
832.000,6.23887e-19
834.000,6.18291e-19
836.000,6.12755e-19
838.000,6.07272e-19
840.000,6.01860e-19
842.000,5.96502e-19
844.000,5.91206e-19
846.000,5.85949e-19
848.000,5.80761e-19
850.000,5.75631e-19
852.000,5.70569e-19
854.000,5.65557e-19
856.000,5.60590e-19
858.000,5.55685e-19
860.000,5.50852e-19
862.000,5.46062e-19
864.000,5.41341e-19
866.000,5.36681e-19
868.000,5.32077e-19
870.000,5.27530e-19
872.000,5.23021e-19
874.000,5.18573e-19
876.000,5.14212e-19
878.000,5.09912e-19
880.000,5.05632e-19
882.000,5.01323e-19
884.000,4.96987e-19
886.000,4.92845e-19
888.000,4.88845e-19
890.000,4.85035e-19
892.000,4.81191e-19
894.000,4.77199e-19
896.000,4.73000e-19
898.000,4.68648e-19
900.000,4.64416e-19
902.000,4.60654e-19
904.000,4.57290e-19
906.000,4.54228e-19
908.000,4.51060e-19
910.000,4.47634e-19
912.000,4.43951e-19
914.000,4.39973e-19
916.000,4.35672e-19
918.000,4.30979e-19
920.000,4.26070e-19
922.000,4.21708e-19
924.000,4.18482e-19
926.000,4.16379e-19
928.000,4.14641e-19
930.000,4.12631e-19
932.000,4.10224e-19
934.000,4.07523e-19
936.000,4.04566e-19
938.000,4.01411e-19
940.000,3.98064e-19
942.000,3.94487e-19
944.000,3.90663e-19
946.000,3.86499e-19
948.000,3.81876e-19
950.000,3.76657e-19
952.000,3.71068e-19
954.000,3.66551e-19
956.000,3.64162e-19
958.000,3.63726e-19
960.000,3.63452e-19
962.000,3.62585e-19
964.000,3.61157e-19
966.000,3.59337e-19
968.000,3.57239e-19
970.000,3.54957e-19
972.000,3.52548e-19
974.000,3.50041e-19
976.000,3.47464e-19
978.000,3.44840e-19
980.000,3.42163e-19
982.000,3.39445e-19
984.000,3.36663e-19
986.000,3.33814e-19
988.000,3.30867e-19
990.000,3.27780e-19
992.000,3.24492e-19
994.000,3.20900e-19
996.000,3.16894e-19
998.000,3.12236e-19
1000.00,3.06648e-19
1002.00,2.99968e-19
1004.00,2.93793e-19
1006.00,2.91806e-19
1008.00,2.93790e-19
1010.00,2.95818e-19
1012.00,2.96641e-19
1014.00,2.96509e-19
1016.00,2.95733e-19
1018.00,2.94528e-19
1020.00,2.93035e-19
