wave,flux,fluxerr
135.05642,6.9409504e-14,0.0000000
135.15643,6.9261368e-14,0.0000000
135.25644,6.9114519e-14,0.0000000
135.35644,6.8972216e-14,0.0000000
135.45645,6.8829255e-14,0.0000000
135.55646,6.8684364e-14,0.0000000
135.65647,6.8536374e-14,0.0000000
135.75648,6.8395610e-14,0.0000000
135.85648,6.8252278e-14,0.0000000
135.95649,6.8106471e-14,0.0000000
136.05650,6.7964728e-14,0.0000000
136.15651,6.7819882e-14,0.0000000
136.25652,6.7682336e-14,0.0000000
136.35652,6.7536673e-14,0.0000000
136.45653,6.7397867e-14,0.0000000
136.55654,6.7256781e-14,0.0000000
136.65655,6.7114194e-14,0.0000000
136.75656,6.6973462e-14,0.0000000
136.85657,6.6835826e-14,0.0000000
136.95657,6.6689063e-14,0.0000000
137.05658,6.6551577e-14,0.0000000
137.15659,6.6412600e-14,0.0000000
137.25660,6.6274406e-14,0.0000000
137.35661,6.6137701e-14,0.0000000
137.45662,6.5994723e-14,0.0000000
137.55663,6.5852215e-14,0.0000000
137.65663,6.5718070e-14,0.0000000
137.75664,6.5580994e-14,0.0000000
137.85665,6.5441913e-14,0.0000000
137.95666,6.5303004e-14,0.0000000
138.05667,6.5169773e-14,0.0000000
138.15668,6.5038564e-14,0.0000000
138.25669,6.4898622e-14,0.0000000
138.35670,6.4763941e-14,0.0000000
138.45671,6.4629758e-14,0.0000000
138.55671,6.4493480e-14,0.0000000
138.65672,6.4358392e-14,0.0000000
138.75673,6.4224267e-14,0.0000000
138.85674,6.4090335e-14,0.0000000
138.95675,6.3953633e-14,0.0000000
139.05676,6.3818125e-14,0.0000000
139.15677,6.3683371e-14,0.0000000
139.25678,6.3549645e-14,0.0000000
139.35679,6.3422290e-14,0.0000000
139.45680,6.3287945e-14,0.0000000
139.55681,6.3153932e-14,0.0000000
139.65682,6.3020616e-14,0.0000000
139.75683,6.2891926e-14,0.0000000
139.85684,6.2759132e-14,0.0000000
139.95685,6.2628902e-14,0.0000000
140.05686,6.2497522e-14,0.0000000
140.15687,6.2363397e-14,0.0000000
140.25688,6.2235979e-14,0.0000000
140.35689,6.2105849e-14,0.0000000
140.45690,6.1980399e-14,0.0000000
140.55691,6.1846988e-14,0.0000000
140.65692,6.1717868e-14,0.0000000
140.75693,6.1589277e-14,0.0000000
140.85694,6.1456661e-14,0.0000000
140.95695,6.1331664e-14,0.0000000
141.05696,6.1206219e-14,0.0000000
141.15697,6.1074738e-14,0.0000000
141.25698,6.0948403e-14,0.0000000
141.35699,6.0820268e-14,0.0000000
141.45700,6.0698187e-14,0.0000000
141.55701,6.0568751e-14,0.0000000
141.65702,6.0440026e-14,0.0000000
141.75703,6.0315371e-14,0.0000000
141.85704,6.0194011e-14,0.0000000
141.95705,6.0068172e-14,0.0000000
142.05706,5.9943022e-14,0.0000000
142.15707,5.9817131e-14,0.0000000
142.25708,5.9691092e-14,0.0000000
142.35709,5.9572304e-14,0.0000000
142.45711,5.9444398e-14,0.0000000
142.55712,5.9315963e-14,0.0000000
142.65713,5.9195853e-14,0.0000000
142.75714,5.9072297e-14,0.0000000
142.85715,5.8952549e-14,0.0000000
142.95716,5.8831270e-14,0.0000000
143.05717,5.8706733e-14,0.0000000
143.15718,5.8586154e-14,0.0000000
143.25719,5.8462542e-14,0.0000000
143.35720,5.8339517e-14,0.0000000
143.45722,5.8218325e-14,0.0000000
143.55723,5.8100374e-14,0.0000000
143.65724,5.7981639e-14,0.0000000
143.75725,5.7861582e-14,0.0000000
143.85726,5.7737422e-14,0.0000000
143.95727,5.7620985e-14,0.0000000
144.05728,5.7501177e-14,0.0000000
144.15729,5.7380973e-14,0.0000000
144.25731,5.7262633e-14,0.0000000
144.35732,5.7146428e-14,0.0000000
144.45733,5.7024829e-14,0.0000000
144.55734,5.6907756e-14,0.0000000
144.65735,5.6792306e-14,0.0000000
144.75736,5.6674303e-14,0.0000000
144.85738,5.6557160e-14,0.0000000
144.95739,5.6440517e-14,0.0000000
145.05740,5.6321525e-14,0.0000000
145.15741,5.6209564e-14,0.0000000
145.25742,5.6087862e-14,0.0000000
145.35743,5.5974636e-14,0.0000000
145.45745,5.5859018e-14,0.0000000
145.55746,5.5739427e-14,0.0000000
145.65747,5.5629780e-14,0.0000000
145.75748,5.5509905e-14,0.0000000
145.85749,5.5398830e-14,0.0000000
145.95751,5.5282413e-14,0.0000000
146.05752,5.5168790e-14,0.0000000
146.15753,5.5058346e-14,0.0000000
146.25754,5.4943183e-14,0.0000000
146.35756,5.4831563e-14,0.0000000
146.45757,5.4718422e-14,0.0000000
146.55758,5.4599464e-14,0.0000000
146.65759,5.4492092e-14,0.0000000
146.75760,5.4381413e-14,0.0000000
146.85762,5.4263447e-14,0.0000000
146.95763,5.4157530e-14,0.0000000
147.05764,5.4047152e-14,0.0000000
147.15765,5.3939542e-14,0.0000000
147.25767,5.3819983e-14,0.0000000
147.35768,5.3710277e-14,0.0000000
147.45769,5.3601096e-14,0.0000000
147.55770,5.3493238e-14,0.0000000
147.65772,5.3385405e-14,0.0000000
147.75773,5.3275912e-14,0.0000000
147.85774,5.3167813e-14,0.0000000
147.95776,5.3058083e-14,0.0000000
148.05777,5.2951504e-14,0.0000000
148.15778,5.2839087e-14,0.0000000
148.25779,5.2732504e-14,0.0000000
148.35781,5.2626807e-14,0.0000000
148.45782,5.2518410e-14,0.0000000
148.55783,5.2408687e-14,0.0000000
148.65785,5.2304152e-14,0.0000000
148.75786,5.2190624e-14,0.0000000
148.85787,5.2082582e-14,0.0000000
148.95788,5.1978575e-14,0.0000000
149.05790,5.1867761e-14,0.0000000
149.15791,5.1764726e-14,0.0000000
149.25792,5.1660066e-14,0.0000000
149.35794,5.1555323e-14,0.0000000
149.45795,5.1450693e-14,0.0000000
149.55796,5.1346299e-14,0.0000000
149.65798,5.1243276e-14,0.0000000
149.75799,5.1138751e-14,0.0000000
149.85800,5.1032361e-14,0.0000000
149.95802,5.0925975e-14,0.0000000
150.05803,5.0821093e-14,0.0000000
150.15804,5.0714912e-14,0.0000000
150.25806,5.0616328e-14,0.0000000
150.35807,5.0512964e-14,0.0000000
150.45809,5.0409002e-14,0.0000000
150.55810,5.0304457e-14,0.0000000
150.65811,5.0207172e-14,0.0000000
150.75813,5.0104120e-14,0.0000000
150.85814,4.9998740e-14,0.0000000
150.95815,4.9904398e-14,0.0000000
151.05817,4.9802691e-14,0.0000000
151.15818,4.9698032e-14,0.0000000
151.25819,4.9600312e-14,0.0000000
151.35821,4.9494791e-14,0.0000000
151.45822,4.9392348e-14,0.0000000
151.55824,4.9294266e-14,0.0000000
151.65825,4.9195233e-14,0.0000000
151.75826,4.9097829e-14,0.0000000
151.85828,4.8993063e-14,0.0000000
151.95829,4.8903010e-14,0.0000000
152.05831,4.8797105e-14,0.0000000
152.15832,4.8700160e-14,0.0000000
152.25833,4.8600871e-14,0.0000000
152.35835,4.8501472e-14,0.0000000
152.45836,4.8405588e-14,0.0000000
152.55838,4.8303394e-14,0.0000000
152.65839,4.8207400e-14,0.0000000
152.75841,4.8111537e-14,0.0000000
152.85842,4.8015446e-14,0.0000000
152.95843,4.7913693e-14,0.0000000
153.05845,4.7823259e-14,0.0000000
153.15846,4.7721902e-14,0.0000000
153.25848,4.7628684e-14,0.0000000
153.35849,4.7528794e-14,0.0000000
153.45851,4.7433402e-14,0.0000000
153.55852,4.7344988e-14,0.0000000
153.65854,4.7240913e-14,0.0000000
153.75855,4.7152097e-14,0.0000000
153.85856,4.7049156e-14,0.0000000
153.95858,4.6960177e-14,0.0000000
154.05859,4.6863619e-14,0.0000000
154.15861,4.6768238e-14,0.0000000
154.25862,4.6671987e-14,0.0000000
154.35864,4.6583204e-14,0.0000000
154.45865,4.6491458e-14,0.0000000
154.55867,4.6390911e-14,0.0000000
154.65868,4.6300714e-14,0.0000000
154.75870,4.6210163e-14,0.0000000
154.85871,4.6112680e-14,0.0000000
154.95873,4.6023208e-14,0.0000000
155.05874,4.5929930e-14,0.0000000
155.15876,4.5834184e-14,0.0000000
155.25877,4.5744969e-14,0.0000000
155.35879,4.5655681e-14,0.0000000
155.45880,4.5566365e-14,0.0000000
155.55882,4.5475694e-14,0.0000000
155.65883,4.5374805e-14,0.0000000
155.75885,4.5285053e-14,0.0000000
155.85886,4.5195251e-14,0.0000000
155.95888,4.5108039e-14,0.0000000
156.05889,4.5017264e-14,0.0000000
156.15891,4.4927094e-14,0.0000000
156.25892,4.4838477e-14,0.0000000
156.35894,4.4746168e-14,0.0000000
156.45895,4.4658918e-14,0.0000000
156.55897,4.4564870e-14,0.0000000
156.65898,4.4477382e-14,0.0000000
156.75900,4.4389902e-14,0.0000000
156.85901,4.4302305e-14,0.0000000
156.95903,4.4214763e-14,0.0000000
157.05904,4.4127086e-14,0.0000000
157.15906,4.4039460e-14,0.0000000
157.25908,4.3951695e-14,0.0000000
157.35909,4.3865532e-14,0.0000000
157.45911,4.3777686e-14,0.0000000
157.55912,4.3689900e-14,0.0000000
157.65914,4.3601972e-14,0.0000000
157.75915,4.3514042e-14,0.0000000
157.85917,4.3426087e-14,0.0000000
157.95918,4.3339222e-14,0.0000000
158.05920,4.3252930e-14,0.0000000
158.15922,4.3165054e-14,0.0000000
158.25923,4.3077474e-14,0.0000000
158.35925,4.2995361e-14,0.0000000
158.45926,4.2908946e-14,0.0000000
158.55928,4.2828300e-14,0.0000000
158.65930,4.2740079e-14,0.0000000
158.75931,4.2652696e-14,0.0000000
158.85933,4.2571248e-14,0.0000000
158.95934,4.2483539e-14,0.0000000
159.05936,4.2404066e-14,0.0000000
159.15937,4.2317736e-14,0.0000000
159.25939,4.2230299e-14,0.0000000
159.35941,4.2148987e-14,0.0000000
159.45942,4.2067523e-14,0.0000000
159.55944,4.1983175e-14,0.0000000
159.65945,4.1897883e-14,0.0000000
159.75947,4.1817174e-14,0.0000000
159.85949,4.1735484e-14,0.0000000
159.95950,4.1650197e-14,0.0000000
160.05952,4.1565809e-14,0.0000000
160.15954,4.1489468e-14,0.0000000
160.25955,4.1407170e-14,0.0000000
160.35957,4.1322196e-14,0.0000000
160.45958,4.1235528e-14,0.0000000
160.55960,4.1164573e-14,0.0000000
160.65962,4.1078246e-14,0.0000000
160.75963,4.0995151e-14,0.0000000
160.85965,4.0914953e-14,0.0000000
160.95967,4.0835815e-14,0.0000000
161.05968,4.0756827e-14,0.0000000
161.15970,4.0671908e-14,0.0000000
161.25971,4.0592636e-14,0.0000000
161.35973,4.0515999e-14,0.0000000
161.45975,4.0430456e-14,0.0000000
161.55976,4.0356469e-14,0.0000000
161.65978,4.0272992e-14,0.0000000
161.75980,4.0198501e-14,0.0000000
161.85981,4.0116146e-14,0.0000000
161.95983,4.0037481e-14,0.0000000
162.05985,3.9955623e-14,0.0000000
162.15986,3.9879776e-14,0.0000000
162.25988,3.9801510e-14,0.0000000
162.35990,3.9723538e-14,0.0000000
162.45991,3.9643504e-14,0.0000000
162.55993,3.9565652e-14,0.0000000
162.65995,3.9489471e-14,0.0000000
162.75996,3.9414689e-14,0.0000000
162.85998,3.9330895e-14,0.0000000
162.96000,3.9259025e-14,0.0000000
163.06001,3.9180081e-14,0.0000000
163.16003,3.9102346e-14,0.0000000
163.26005,3.9027729e-14,0.0000000
163.36007,3.8950440e-14,0.0000000
163.46008,3.8873183e-14,0.0000000
163.56010,3.8795853e-14,0.0000000
163.66012,3.8724508e-14,0.0000000
163.76013,3.8642180e-14,0.0000000
163.86015,3.8571066e-14,0.0000000
163.96017,3.8494906e-14,0.0000000
164.06018,3.8417202e-14,0.0000000
164.16020,3.8346057e-14,0.0000000
164.26022,3.8269800e-14,0.0000000
164.36024,3.8193192e-14,0.0000000
164.46025,3.8117114e-14,0.0000000
164.56027,3.8044703e-14,0.0000000
164.66029,3.7972730e-14,0.0000000
164.76030,3.7893591e-14,0.0000000
164.86032,3.7820771e-14,0.0000000
164.96034,3.7750257e-14,0.0000000
165.06036,3.7675852e-14,0.0000000
165.16037,3.7600483e-14,0.0000000
165.26039,3.7529373e-14,0.0000000
165.36041,3.7452465e-14,0.0000000
165.46043,3.7381044e-14,0.0000000
165.56044,3.7307601e-14,0.0000000
165.66046,3.7237490e-14,0.0000000
165.76048,3.7164821e-14,0.0000000
165.86049,3.7094271e-14,0.0000000
165.96051,3.7015608e-14,0.0000000
166.06053,3.6945211e-14,0.0000000
166.16055,3.6872370e-14,0.0000000
166.26056,3.6802028e-14,0.0000000
166.36058,3.6726566e-14,0.0000000
166.46060,3.6655977e-14,0.0000000
166.56062,3.6585318e-14,0.0000000
166.66064,3.6516097e-14,0.0000000
166.76065,3.6444951e-14,0.0000000
166.86067,3.6374514e-14,0.0000000
166.96069,3.6310435e-14,0.0000000
167.06071,3.6239935e-14,0.0000000
167.16072,3.6163139e-14,0.0000000
167.26074,3.6092605e-14,0.0000000
167.36076,3.6024119e-14,0.0000000
167.46078,3.5954292e-14,0.0000000
167.56079,3.5885194e-14,0.0000000
167.66081,3.5816065e-14,0.0000000
167.76083,3.5747739e-14,0.0000000
167.86085,3.5678657e-14,0.0000000
167.96087,3.5607805e-14,0.0000000
168.06088,3.5539391e-14,0.0000000
168.16090,3.5471077e-14,0.0000000
168.26092,3.5402371e-14,0.0000000
168.36094,3.5329069e-14,0.0000000
168.46095,3.5260393e-14,0.0000000
168.56097,3.5192204e-14,0.0000000
168.66099,3.5127357e-14,0.0000000
168.76101,3.5058106e-14,0.0000000
168.86103,3.4993514e-14,0.0000000
168.96104,3.4925885e-14,0.0000000
169.06106,3.4858506e-14,0.0000000
169.16108,3.4790582e-14,0.0000000
169.26110,3.4721223e-14,0.0000000
169.36112,3.4658894e-14,0.0000000
169.46114,3.4589042e-14,0.0000000
169.56115,3.4521130e-14,0.0000000
169.66117,3.4453280e-14,0.0000000
169.76119,3.4387732e-14,0.0000000
169.86121,3.4318334e-14,0.0000000
169.96123,3.4253431e-14,0.0000000
170.06124,3.4186168e-14,0.0000000
170.16126,3.4116047e-14,0.0000000
170.26128,3.4061721e-14,0.0000000
170.36130,3.3992484e-14,0.0000000
170.46132,3.3927897e-14,0.0000000
170.56134,3.3858705e-14,0.0000000
170.66135,3.3792582e-14,0.0000000
170.76137,3.3730998e-14,0.0000000
170.86139,3.3666452e-14,0.0000000
170.96141,3.3601053e-14,0.0000000
171.06143,3.3533476e-14,0.0000000
171.16145,3.3469428e-14,0.0000000
171.26146,3.3407577e-14,0.0000000
171.36148,3.3344990e-14,0.0000000
171.46150,3.3278341e-14,0.0000000
171.56152,3.3214245e-14,0.0000000
171.66154,3.3154740e-14,0.0000000
171.76156,3.3089285e-14,0.0000000
171.86158,3.3022594e-14,0.0000000
171.96159,3.2961419e-14,0.0000000
172.06161,3.2895727e-14,0.0000000
172.16163,3.2834824e-14,0.0000000
172.26165,3.2773829e-14,0.0000000
172.36167,3.2708330e-14,0.0000000
172.46169,3.2647020e-14,0.0000000
172.56171,3.2585362e-14,0.0000000
172.66172,3.2523898e-14,0.0000000
172.76174,3.2459086e-14,0.0000000
172.86176,3.2398977e-14,0.0000000
172.96178,3.2337911e-14,0.0000000
173.06180,3.2270917e-14,0.0000000
173.16182,3.2210633e-14,0.0000000
173.26184,3.2150232e-14,0.0000000
173.36186,3.2086608e-14,0.0000000
173.46187,3.2027438e-14,0.0000000
173.56189,3.1967858e-14,0.0000000
173.66191,3.1902468e-14,0.0000000
173.76193,3.1846805e-14,0.0000000
173.86195,3.1782457e-14,0.0000000
173.96197,3.1721003e-14,0.0000000
174.06199,3.1662989e-14,0.0000000
174.16201,3.1600382e-14,0.0000000
174.26203,3.1541023e-14,0.0000000
174.36204,3.1480370e-14,0.0000000
174.46206,3.1424140e-14,0.0000000
174.56208,3.1362615e-14,0.0000000
174.66210,3.1304140e-14,0.0000000
174.76212,3.1239406e-14,0.0000000
174.86214,3.1179765e-14,0.0000000
174.96216,3.1123928e-14,0.0000000
175.06218,3.1065715e-14,0.0000000
175.16220,3.1004962e-14,0.0000000
175.26222,3.0945096e-14,0.0000000
175.36224,3.0885131e-14,0.0000000
175.46225,3.0824184e-14,0.0000000
175.56227,3.0769799e-14,0.0000000
175.66229,3.0712384e-14,0.0000000
175.76231,3.0653658e-14,0.0000000
175.86233,3.0595798e-14,0.0000000
175.96235,3.0536207e-14,0.0000000
176.06237,3.0478241e-14,0.0000000
176.16239,3.0420313e-14,0.0000000
176.26241,3.0361217e-14,0.0000000
176.36243,3.0305570e-14,0.0000000
176.46245,3.0248618e-14,0.0000000
176.56247,3.0190951e-14,0.0000000
176.66249,3.0135815e-14,0.0000000
176.76251,3.0072408e-14,0.0000000
176.86252,3.0020041e-14,0.0000000
176.96254,2.9958251e-14,0.0000000
177.06256,2.9904123e-14,0.0000000
177.16258,2.9843452e-14,0.0000000
177.26260,2.9790150e-14,0.0000000
177.36262,2.9737218e-14,0.0000000
177.46264,2.9676441e-14,0.0000000
177.56266,2.9621925e-14,0.0000000
177.66268,2.9568960e-14,0.0000000
177.76270,2.9508780e-14,0.0000000
177.86272,2.9455111e-14,0.0000000
177.96274,2.9395776e-14,0.0000000
178.06276,2.9343516e-14,0.0000000
178.16278,2.9287558e-14,0.0000000
178.26280,2.9227788e-14,0.0000000
178.36282,2.9174379e-14,0.0000000
178.46284,2.9121714e-14,0.0000000
178.56286,2.9064452e-14,0.0000000
178.66288,2.9010730e-14,0.0000000
178.76290,2.8959486e-14,0.0000000
178.86291,2.8907208e-14,0.0000000
178.96293,2.8846223e-14,0.0000000
179.06295,2.8792259e-14,0.0000000
179.16297,2.8738683e-14,0.0000000
179.26299,2.8686638e-14,0.0000000
179.36301,2.8628257e-14,0.0000000
179.46303,2.8578917e-14,0.0000000
179.56305,2.8524561e-14,0.0000000
179.66307,2.8470943e-14,0.0000000
179.76309,2.8412549e-14,0.0000000
179.86311,2.8359871e-14,0.0000000
179.96313,2.8312252e-14,0.0000000
180.06315,2.8259659e-14,0.0000000
180.16317,2.8201154e-14,0.0000000
180.26319,2.8148952e-14,0.0000000
180.36321,2.8096759e-14,0.0000000
180.46323,2.8044054e-14,0.0000000
180.56325,2.7988136e-14,0.0000000
180.66327,2.7937848e-14,0.0000000
180.76329,2.7886080e-14,0.0000000
180.86331,2.7833313e-14,0.0000000
180.96333,2.7779135e-14,0.0000000
181.06335,2.7723544e-14,0.0000000
181.16337,2.7676714e-14,0.0000000
181.26339,2.7622324e-14,0.0000000
181.36341,2.7571055e-14,0.0000000
181.46343,2.7520049e-14,0.0000000
181.56345,2.7465529e-14,0.0000000
181.66347,2.7414061e-14,0.0000000
181.76349,2.7361341e-14,0.0000000
181.86351,2.7311605e-14,0.0000000
181.96353,2.7263249e-14,0.0000000
182.06355,2.7210645e-14,0.0000000
182.16357,2.7160218e-14,0.0000000
182.26359,2.7105983e-14,0.0000000
182.36361,2.7051940e-14,0.0000000
182.46363,2.7001345e-14,0.0000000
182.56365,2.6954021e-14,0.0000000
182.66367,2.6900967e-14,0.0000000
182.76369,2.6850813e-14,0.0000000
182.86371,2.6802955e-14,0.0000000
182.96373,2.6749856e-14,0.0000000
183.06375,2.6704887e-14,0.0000000
183.16377,2.6651779e-14,0.0000000
183.26379,2.6600232e-14,0.0000000
183.36381,2.6553592e-14,0.0000000
183.46383,2.6502036e-14,0.0000000
183.56386,2.6449065e-14,0.0000000
183.66388,2.6397301e-14,0.0000000
183.76390,2.6345629e-14,0.0000000
183.86392,2.6298383e-14,0.0000000
183.96394,2.6245931e-14,0.0000000
184.06396,2.6202144e-14,0.0000000
184.16398,2.6149660e-14,0.0000000
184.26400,2.6104041e-14,0.0000000
184.36402,2.6053226e-14,0.0000000
184.46404,2.6004487e-14,0.0000000
184.56406,2.5956716e-14,0.0000000
184.66408,2.5906650e-14,0.0000000
184.76410,2.5860186e-14,0.0000000
184.86412,2.5807859e-14,0.0000000
184.96414,2.5763552e-14,0.0000000
185.06416,2.5711173e-14,0.0000000
185.16418,2.5666894e-14,0.0000000
185.26420,2.5615218e-14,0.0000000
185.36422,2.5570159e-14,0.0000000
185.46424,2.5518043e-14,0.0000000
185.56426,2.5473359e-14,0.0000000
185.66428,2.5422366e-14,0.0000000
185.76431,2.5376511e-14,0.0000000
185.86433,2.5325608e-14,0.0000000
185.96435,2.5279622e-14,0.0000000
186.06437,2.5230218e-14,0.0000000
186.16439,2.5185380e-14,0.0000000
186.26441,2.5140218e-14,0.0000000
186.36443,2.5095041e-14,0.0000000
186.46445,2.5047940e-14,0.0000000
186.56447,2.4997952e-14,0.0000000
186.66449,2.4952745e-14,0.0000000
186.76451,2.4900928e-14,0.0000000
186.86453,2.4857806e-14,0.0000000
186.96455,2.4810536e-14,0.0000000
187.06457,2.4760567e-14,0.0000000
187.16460,2.4715993e-14,0.0000000
187.26462,2.4664816e-14,0.0000000
187.36464,2.4624960e-14,0.0000000
187.46466,2.4581860e-14,0.0000000
187.56468,2.4530465e-14,0.0000000
187.66470,2.4484466e-14,0.0000000
187.76472,2.4437078e-14,0.0000000
187.86474,2.4388580e-14,0.0000000
187.96476,2.4348147e-14,0.0000000
188.06478,2.4303275e-14,0.0000000
188.16480,2.4254162e-14,0.0000000
188.26482,2.4208464e-14,0.0000000
188.36485,2.4164590e-14,0.0000000
188.46487,2.4113330e-14,0.0000000
188.56489,2.4074972e-14,0.0000000
188.66491,2.4029563e-14,0.0000000
188.76493,2.3979245e-14,0.0000000
188.86495,2.3936913e-14,0.0000000
188.96497,2.3891819e-14,0.0000000
189.06499,2.3841092e-14,0.0000000
189.16501,2.3803018e-14,0.0000000
189.26503,2.3759580e-14,0.0000000
189.36506,2.3709096e-14,0.0000000
189.46508,2.3665175e-14,0.0000000
189.56510,2.3621242e-14,0.0000000
189.66512,2.3577248e-14,0.0000000
189.76514,2.3533023e-14,0.0000000
189.86516,2.3489046e-14,0.0000000
189.96518,2.3445014e-14,0.0000000
190.06520,2.3394528e-14,0.0000000
190.16522,2.3356135e-14,0.0000000
190.26525,2.3312654e-14,0.0000000
190.36527,2.3268600e-14,0.0000000
190.46529,2.3222632e-14,0.0000000
190.56531,2.3175488e-14,0.0000000
190.66533,2.3137644e-14,0.0000000
190.76535,2.3091942e-14,0.0000000
190.86537,2.3049348e-14,0.0000000
190.96539,2.3000250e-14,0.0000000
191.06541,2.2960827e-14,0.0000000
191.16544,2.2918190e-14,0.0000000
191.26546,2.2874008e-14,0.0000000
191.36548,2.2833168e-14,0.0000000
191.46550,2.2791807e-14,0.0000000
191.56552,2.2741113e-14,0.0000000
191.66554,2.2698484e-14,0.0000000
191.76556,2.2660411e-14,0.0000000
191.86558,2.2616149e-14,0.0000000
191.96561,2.2571876e-14,0.0000000
192.06563,2.2535368e-14,0.0000000
192.16565,2.2491067e-14,0.0000000
192.26567,2.2440292e-14,0.0000000
192.36569,2.2403318e-14,0.0000000
192.46571,2.2357834e-14,0.0000000
192.56573,2.2315016e-14,0.0000000
192.66576,2.2276898e-14,0.0000000
192.76578,2.2232527e-14,0.0000000
192.86580,2.2189670e-14,0.0000000
192.96582,2.2151526e-14,0.0000000
193.06584,2.2108636e-14,0.0000000
193.16586,2.2064917e-14,0.0000000
193.26588,2.2021230e-14,0.0000000
193.36591,2.1979273e-14,0.0000000
193.46593,2.1935781e-14,0.0000000
193.56595,2.1898511e-14,0.0000000
193.66597,2.1856518e-14,0.0000000
