wave,flux,fluxerr
1350.5642,7.6713581e-15,0.0000000
1351.5643,7.6556862e-15,0.0000000
1352.5644,7.6403583e-15,0.0000000
1353.5644,7.6243825e-15,0.0000000
1354.5645,7.6096709e-15,0.0000000
1355.5646,7.5937431e-15,0.0000000
1356.5647,7.5790984e-15,0.0000000
1357.5648,7.5627677e-15,0.0000000
1358.5648,7.5480386e-15,0.0000000
1359.5649,7.5331394e-15,0.0000000
1360.5650,7.5174306e-15,0.0000000
1361.5651,7.5026912e-15,0.0000000
1362.5652,7.4878692e-15,0.0000000
1363.5652,7.4724514e-15,0.0000000
1364.5653,7.4563971e-15,0.0000000
1365.5654,7.4414839e-15,0.0000000
1366.5655,7.4265789e-15,0.0000000
1367.5656,7.4117156e-15,0.0000000
1368.5657,7.3962966e-15,0.0000000
1369.5657,7.3811326e-15,0.0000000
1370.5658,7.3662160e-15,0.0000000
1371.5659,7.3518493e-15,0.0000000
1372.5660,7.3370988e-15,0.0000000
1373.5661,7.3221155e-15,0.0000000
1374.5662,7.3071108e-15,0.0000000
1375.5663,7.2922018e-15,0.0000000
1376.5663,7.2773828e-15,0.0000000
1377.5664,7.2625403e-15,0.0000000
1378.5665,7.2482373e-15,0.0000000
1379.5666,7.2335809e-15,0.0000000
1380.5667,7.2185764e-15,0.0000000
1381.5668,7.2034374e-15,0.0000000
1382.5669,7.1890791e-15,0.0000000
1383.5670,7.1743275e-15,0.0000000
1384.5671,7.1598191e-15,0.0000000
1385.5671,7.1450319e-15,0.0000000
1386.5672,7.1302280e-15,0.0000000
1387.5673,7.1163881e-15,0.0000000
1388.5674,7.1017937e-15,0.0000000
1389.5675,7.0871809e-15,0.0000000
1390.5676,7.0725699e-15,0.0000000
1391.5677,7.0593149e-15,0.0000000
1392.5678,7.0444290e-15,0.0000000
1393.5679,7.0296498e-15,0.0000000
1394.5680,7.0158611e-15,0.0000000
1395.5681,7.0010323e-15,0.0000000
1396.5682,6.9864565e-15,0.0000000
1397.5683,6.9734910e-15,0.0000000
1398.5684,6.9584727e-15,0.0000000
1399.5685,6.9445525e-15,0.0000000
1400.5686,6.9302549e-15,0.0000000
1401.5687,6.9167451e-15,0.0000000
1402.5688,6.9021819e-15,0.0000000
1403.5689,6.8882145e-15,0.0000000
1404.5690,6.8745280e-15,0.0000000
1405.5691,6.8601035e-15,0.0000000
1406.5692,6.8466301e-15,0.0000000
1407.5693,6.8326148e-15,0.0000000
1408.5694,6.8185152e-15,0.0000000
1409.5695,6.8043661e-15,0.0000000
1410.5696,6.7905747e-15,0.0000000
1411.5697,6.7777642e-15,0.0000000
1412.5698,6.7628374e-15,0.0000000
1413.5699,6.7495354e-15,0.0000000
1414.5700,6.7357861e-15,0.0000000
1415.5701,6.7222313e-15,0.0000000
1416.5702,6.7086537e-15,0.0000000
1417.5703,6.6952537e-15,0.0000000
1418.5704,6.6813473e-15,0.0000000
1419.5705,6.6676637e-15,0.0000000
1420.5706,6.6540149e-15,0.0000000
1421.5707,6.6408570e-15,0.0000000
1422.5708,6.6265954e-15,0.0000000
1423.5709,6.6138279e-15,0.0000000
1424.5711,6.6006804e-15,0.0000000
1425.5712,6.5872209e-15,0.0000000
1426.5713,6.5735423e-15,0.0000000
1427.5714,6.5597943e-15,0.0000000
1428.5715,6.5471677e-15,0.0000000
1429.5716,6.5340030e-15,0.0000000
1430.5717,6.5202222e-15,0.0000000
1431.5718,6.5073876e-15,0.0000000
1432.5719,6.4939442e-15,0.0000000
1433.5720,6.4804625e-15,0.0000000
1434.5722,6.4670542e-15,0.0000000
1435.5723,6.4541877e-15,0.0000000
1436.5724,6.4414935e-15,0.0000000
1437.5725,6.4282834e-15,0.0000000
1438.5726,6.4150539e-15,0.0000000
1439.5727,6.4024738e-15,0.0000000
1440.5728,6.3896760e-15,0.0000000
1441.5729,6.3768036e-15,0.0000000
1442.5731,6.3637240e-15,0.0000000
1443.5732,6.3503828e-15,0.0000000
1444.5733,6.3381404e-15,0.0000000
1445.5734,6.3251893e-15,0.0000000
1446.5735,6.3126892e-15,0.0000000
1447.5736,6.2994554e-15,0.0000000
1448.5738,6.2867712e-15,0.0000000
1449.5739,6.2738918e-15,0.0000000
1450.5740,6.2609496e-15,0.0000000
1451.5741,6.2487052e-15,0.0000000
1452.5742,6.2359945e-15,0.0000000
1453.5743,6.2233213e-15,0.0000000
1454.5745,6.2106649e-15,0.0000000
1455.5746,6.1983082e-15,0.0000000
1456.5747,6.1859724e-15,0.0000000
1457.5748,6.1738231e-15,0.0000000
1458.5749,6.1610835e-15,0.0000000
1459.5751,6.1483322e-15,0.0000000
1460.5752,6.1361482e-15,0.0000000
1461.5753,6.1237539e-15,0.0000000
1462.5754,6.1113155e-15,0.0000000
1463.5756,6.0989835e-15,0.0000000
1464.5757,6.0868262e-15,0.0000000
1465.5758,6.0740129e-15,0.0000000
1466.5759,6.0619841e-15,0.0000000
1467.5760,6.0501828e-15,0.0000000
1468.5762,6.0376598e-15,0.0000000
1469.5763,6.0260071e-15,0.0000000
1470.5764,6.0138208e-15,0.0000000
1471.5765,6.0009404e-15,0.0000000
1472.5767,5.9894753e-15,0.0000000
1473.5768,5.9772211e-15,0.0000000
1474.5769,5.9649729e-15,0.0000000
1475.5770,5.9533572e-15,0.0000000
1476.5772,5.9404237e-15,0.0000000
1477.5773,5.9293414e-15,0.0000000
1478.5774,5.9172386e-15,0.0000000
1479.5776,5.9053843e-15,0.0000000
1480.5777,5.8932630e-15,0.0000000
1481.5778,5.8816807e-15,0.0000000
1482.5779,5.8693638e-15,0.0000000
1483.5781,5.8582060e-15,0.0000000
1484.5782,5.8460719e-15,0.0000000
1485.5783,5.8343171e-15,0.0000000
1486.5785,5.8231305e-15,0.0000000
1487.5786,5.8111544e-15,0.0000000
1488.5787,5.7991890e-15,0.0000000
1489.5788,5.7880291e-15,0.0000000
1490.5790,5.7762499e-15,0.0000000
1491.5791,5.7646877e-15,0.0000000
1492.5792,5.7532118e-15,0.0000000
1493.5794,5.7419481e-15,0.0000000
1494.5795,5.7300150e-15,0.0000000
1495.5796,5.7183630e-15,0.0000000
1496.5798,5.7067329e-15,0.0000000
1497.5799,5.6955317e-15,0.0000000
1498.5800,5.6843118e-15,0.0000000
1499.5802,5.6726383e-15,0.0000000
1500.5803,5.6616618e-15,0.0000000
1501.5804,5.6503070e-15,0.0000000
1502.5806,5.6390502e-15,0.0000000
1503.5807,5.6277568e-15,0.0000000
1504.5809,5.6160197e-15,0.0000000
1505.5810,5.6051895e-15,0.0000000
1506.5811,5.5938994e-15,0.0000000
1507.5813,5.5831341e-15,0.0000000
1508.5814,5.5717643e-15,0.0000000
1509.5815,5.5604642e-15,0.0000000
1510.5817,5.5496916e-15,0.0000000
1511.5818,5.5378242e-15,0.0000000
1512.5819,5.5270064e-15,0.0000000
1513.5821,5.5166655e-15,0.0000000
1514.5822,5.5052468e-15,0.0000000
1515.5824,5.4936319e-15,0.0000000
1516.5825,5.4828964e-15,0.0000000
1517.5826,5.4726262e-15,0.0000000
1518.5828,5.4620270e-15,0.0000000
1519.5829,5.4505923e-15,0.0000000
1520.5831,5.4399352e-15,0.0000000
1521.5832,5.4286607e-15,0.0000000
1522.5833,5.4175510e-15,0.0000000
1523.5835,5.4073906e-15,0.0000000
1524.5836,5.3967485e-15,0.0000000
1525.5838,5.3851656e-15,0.0000000
1526.5839,5.3752451e-15,0.0000000
1527.5841,5.3645881e-15,0.0000000
1528.5842,5.3536162e-15,0.0000000
1529.5843,5.3434299e-15,0.0000000
1530.5845,5.3323048e-15,0.0000000
1531.5846,5.3213143e-15,0.0000000
1532.5848,5.3112301e-15,0.0000000
1533.5849,5.3005365e-15,0.0000000
1534.5851,5.2906785e-15,0.0000000
1535.5852,5.2794022e-15,0.0000000
1536.5854,5.2695065e-15,0.0000000
1537.5855,5.2592851e-15,0.0000000
1538.5856,5.2485615e-15,0.0000000
1539.5858,5.2378280e-15,0.0000000
1540.5859,5.2271193e-15,0.0000000
1541.5861,5.2172076e-15,0.0000000
1542.5862,5.2069876e-15,0.0000000
1543.5864,5.1965230e-15,0.0000000
1544.5865,5.1863374e-15,0.0000000
1545.5867,5.1759833e-15,0.0000000
1546.5868,5.1660306e-15,0.0000000
1547.5870,5.1552949e-15,0.0000000
1548.5871,5.1453291e-15,0.0000000
1549.5873,5.1353649e-15,0.0000000
1550.5874,5.1246587e-15,0.0000000
1551.5876,5.1145738e-15,0.0000000
1552.5877,5.1047404e-15,0.0000000
1553.5879,5.0943354e-15,0.0000000
1554.5880,5.0844876e-15,0.0000000
1555.5882,5.0739412e-15,0.0000000
1556.5883,5.0639192e-15,0.0000000
1557.5885,5.0545581e-15,0.0000000
1558.5886,5.0447770e-15,0.0000000
1559.5888,5.0350987e-15,0.0000000
1560.5889,5.0254229e-15,0.0000000
1561.5891,5.0151486e-15,0.0000000
1562.5892,5.0053596e-15,0.0000000
1563.5894,4.9955587e-15,0.0000000
1564.5895,4.9857605e-15,0.0000000
1565.5897,4.9759515e-15,0.0000000
1566.5898,4.9661387e-15,0.0000000
1567.5900,4.9563041e-15,0.0000000
1568.5901,4.9459063e-15,0.0000000
1569.5903,4.9360764e-15,0.0000000
1570.5904,4.9262295e-15,0.0000000
1571.5906,4.9163873e-15,0.0000000
1572.5908,4.9070565e-15,0.0000000
1573.5909,4.8972347e-15,0.0000000
1574.5911,4.8880266e-15,0.0000000
1575.5912,4.8782577e-15,0.0000000
1576.5914,4.8684743e-15,0.0000000
1577.5915,4.8590980e-15,0.0000000
1578.5917,4.8500285e-15,0.0000000
1579.5918,4.8406838e-15,0.0000000
1580.5920,4.8307807e-15,0.0000000
1581.5922,4.8208677e-15,0.0000000
1582.5923,4.8110144e-15,0.0000000
1583.5925,4.8031003e-15,0.0000000
1584.5926,4.7933250e-15,0.0000000
1585.5928,4.7837416e-15,0.0000000
1586.5930,4.7739089e-15,0.0000000
1587.5931,4.7649243e-15,0.0000000
1588.5933,4.7561222e-15,0.0000000
1589.5934,4.7462643e-15,0.0000000
1590.5936,4.7364337e-15,0.0000000
1591.5937,4.7278638e-15,0.0000000
1592.5939,4.7185488e-15,0.0000000
1593.5941,4.7095683e-15,0.0000000
1594.5942,4.6996864e-15,0.0000000
1595.5944,4.6907016e-15,0.0000000
1596.5945,4.6817785e-15,0.0000000
1597.5947,4.6720454e-15,0.0000000
1598.5949,4.6631613e-15,0.0000000
1599.5950,4.6545360e-15,0.0000000
1600.5952,4.6453940e-15,0.0000000
1601.5954,4.6356731e-15,0.0000000
1602.5955,4.6266737e-15,0.0000000
1603.5957,4.6184441e-15,0.0000000
1604.5958,4.6087074e-15,0.0000000
1605.5960,4.5995502e-15,0.0000000
1606.5962,4.5911423e-15,0.0000000
1607.5963,4.5822280e-15,0.0000000
1608.5965,4.5733023e-15,0.0000000
1609.5967,4.5641021e-15,0.0000000
1610.5968,4.5549001e-15,0.0000000
1611.5970,4.5467505e-15,0.0000000
1612.5971,4.5375815e-15,0.0000000
1613.5973,4.5283811e-15,0.0000000
1614.5975,4.5205201e-15,0.0000000
1615.5976,4.5110171e-15,0.0000000
1616.5978,4.5020378e-15,0.0000000
1617.5980,4.4935060e-15,0.0000000
1618.5981,4.4852214e-15,0.0000000
1619.5983,4.4756966e-15,0.0000000
1620.5985,4.4673246e-15,0.0000000
1621.5986,4.4585721e-15,0.0000000
1622.5988,4.4500976e-15,0.0000000
1623.5990,4.4411404e-15,0.0000000
1624.5991,4.4332229e-15,0.0000000
1625.5993,4.4242647e-15,0.0000000
1626.5995,4.4156621e-15,0.0000000
1627.5996,4.4066226e-15,0.0000000
1628.5998,4.3983298e-15,0.0000000
1629.6000,4.3896469e-15,0.0000000
1630.6001,4.3814007e-15,0.0000000
1631.6003,4.3728776e-15,0.0000000
1632.6005,4.3644811e-15,0.0000000
1633.6007,4.3559294e-15,0.0000000
1634.6008,4.3471193e-15,0.0000000
1635.6010,4.3392320e-15,0.0000000
1636.6012,4.3303881e-15,0.0000000
1637.6013,4.3220831e-15,0.0000000
1638.6015,4.3146401e-15,0.0000000
1639.6017,4.3054702e-15,0.0000000
1640.6018,4.2979785e-15,0.0000000
1641.6020,4.2888786e-15,0.0000000
1642.6022,4.2808274e-15,0.0000000
1643.6024,4.2729273e-15,0.0000000
1644.6025,4.2641789e-15,0.0000000
1645.6027,4.2561029e-15,0.0000000
1646.6029,4.2477333e-15,0.0000000
1647.6030,4.2391231e-15,0.0000000
1648.6032,4.2316462e-15,0.0000000
1649.6034,4.2227279e-15,0.0000000
1650.6036,4.2149485e-15,0.0000000
1651.6037,4.2069115e-15,0.0000000
1652.6039,4.1986060e-15,0.0000000
1653.6041,4.1906926e-15,0.0000000
1654.6043,4.1822785e-15,0.0000000
1655.6044,4.1747688e-15,0.0000000
1656.6046,4.1662816e-15,0.0000000
1657.6048,4.1580145e-15,0.0000000
1658.6049,4.1506611e-15,0.0000000
1659.6051,4.1428209e-15,0.0000000
1660.6053,4.1338489e-15,0.0000000
1661.6055,4.1266791e-15,0.0000000
1662.6056,4.1189416e-15,0.0000000
1663.6058,4.1106921e-15,0.0000000
1664.6060,4.1024278e-15,0.0000000
1665.6062,4.0946288e-15,0.0000000
1666.6064,4.0868592e-15,0.0000000
1667.6065,4.0787743e-15,0.0000000
1668.6067,4.0717095e-15,0.0000000
1669.6069,4.0632290e-15,0.0000000
1670.6071,4.0548558e-15,0.0000000
1671.6072,4.0477867e-15,0.0000000
1672.6074,4.0401655e-15,0.0000000
1673.6076,4.0317854e-15,0.0000000
1674.6078,4.0243240e-15,0.0000000
1675.6079,4.0173021e-15,0.0000000
1676.6081,4.0086925e-15,0.0000000
1677.6083,4.0009539e-15,0.0000000
1678.6085,3.9931854e-15,0.0000000
1679.6087,3.9861075e-15,0.0000000
1680.6088,3.9787706e-15,0.0000000
1681.6090,3.9704242e-15,0.0000000
1682.6092,3.9626740e-15,0.0000000
1683.6094,3.9552311e-15,0.0000000
1684.6095,3.9478105e-15,0.0000000
1685.6097,3.9397567e-15,0.0000000
1686.6099,3.9325723e-15,0.0000000
1687.6101,3.9250991e-15,0.0000000
1688.6103,3.9176704e-15,0.0000000
1689.6104,3.9107650e-15,0.0000000
1690.6106,3.9033863e-15,0.0000000
1691.6108,3.8949474e-15,0.0000000
1692.6110,3.8872209e-15,0.0000000
1693.6112,3.8797427e-15,0.0000000
1694.6114,3.8726976e-15,0.0000000
1695.6115,3.8651739e-15,0.0000000
1696.6117,3.8578647e-15,0.0000000
1697.6119,3.8509331e-15,0.0000000
1698.6121,3.8429820e-15,0.0000000
1699.6123,3.8350887e-15,0.0000000
1700.6124,3.8281494e-15,0.0000000
1701.6126,3.8212009e-15,0.0000000
1702.6128,3.8131572e-15,0.0000000
1703.6130,3.8062117e-15,0.0000000
1704.6132,3.7991273e-15,0.0000000
1705.6134,3.7917455e-15,0.0000000
1706.6135,3.7845564e-15,0.0000000
1707.6137,3.7775473e-15,0.0000000
1708.6139,3.7699805e-15,0.0000000
1709.6141,3.7628114e-15,0.0000000
1710.6143,3.7566638e-15,0.0000000
1711.6145,3.7496995e-15,0.0000000
1712.6146,3.7416314e-15,0.0000000
1713.6148,3.7346623e-15,0.0000000
1714.6150,3.7278009e-15,0.0000000
1715.6152,3.7207555e-15,0.0000000
1716.6154,3.7136642e-15,0.0000000
1717.6156,3.7064499e-15,0.0000000
1718.6158,3.6995466e-15,0.0000000
1719.6159,3.6921852e-15,0.0000000
1720.6161,3.6853910e-15,0.0000000
1721.6163,3.6783386e-15,0.0000000
1722.6165,3.6710804e-15,0.0000000
1723.6167,3.6638858e-15,0.0000000
1724.6169,3.6570795e-15,0.0000000
1725.6171,3.6510885e-15,0.0000000
1726.6172,3.6439203e-15,0.0000000
1727.6174,3.6366362e-15,0.0000000
1728.6176,3.6297278e-15,0.0000000
1729.6178,3.6227301e-15,0.0000000
1730.6180,3.6159099e-15,0.0000000
1731.6182,3.6085220e-15,0.0000000
1732.6184,3.6015154e-15,0.0000000
1733.6186,3.5954107e-15,0.0000000
1734.6187,3.5884924e-15,0.0000000
1735.6189,3.5810899e-15,0.0000000
1736.6191,3.5740917e-15,0.0000000
1737.6193,3.5672499e-15,0.0000000
1738.6195,3.5609366e-15,0.0000000
1739.6197,3.5552645e-15,0.0000000
1740.6199,3.5480269e-15,0.0000000
1741.6201,3.5410868e-15,0.0000000
1742.6203,3.5341388e-15,0.0000000
1743.6204,3.5274256e-15,0.0000000
1744.6206,3.5207410e-15,0.0000000
1745.6208,3.5138882e-15,0.0000000
1746.6210,3.5075038e-15,0.0000000
1747.6212,3.5006404e-15,0.0000000
1748.6214,3.4944301e-15,0.0000000
1749.6216,3.4875682e-15,0.0000000
1750.6218,3.4807005e-15,0.0000000
1751.6220,3.4745775e-15,0.0000000
1752.6222,3.4686508e-15,0.0000000
1753.6224,3.4617789e-15,0.0000000
1754.6225,3.4543022e-15,0.0000000
1755.6227,3.4481873e-15,0.0000000
1756.6229,3.4413713e-15,0.0000000
1757.6231,3.4354224e-15,0.0000000
1758.6233,3.4286023e-15,0.0000000
1759.6235,3.4224189e-15,0.0000000
1760.6237,3.4158342e-15,0.0000000
1761.6239,3.4089581e-15,0.0000000
1762.6241,3.4029566e-15,0.0000000
1763.6243,3.3969701e-15,0.0000000
1764.6245,3.3902173e-15,0.0000000
1765.6247,3.3834899e-15,0.0000000
1766.6249,3.3768871e-15,0.0000000
1767.6251,3.3716481e-15,0.0000000
1768.6252,3.3647576e-15,0.0000000
1769.6254,3.3578870e-15,0.0000000
1770.6256,3.3518346e-15,0.0000000
1771.6258,3.3457987e-15,0.0000000
1772.6260,3.3391009e-15,0.0000000
1773.6262,3.3331560e-15,0.0000000
1774.6264,3.3264020e-15,0.0000000
1775.6266,3.3205391e-15,0.0000000
1776.6268,3.3145021e-15,0.0000000
1777.6270,3.3076372e-15,0.0000000
1778.6272,3.3013910e-15,0.0000000
1779.6274,3.2957654e-15,0.0000000
1780.6276,3.2889784e-15,0.0000000
1781.6278,3.2827097e-15,0.0000000
1782.6280,3.2771243e-15,0.0000000
1783.6282,3.2703570e-15,0.0000000
1784.6284,3.2644244e-15,0.0000000
1785.6286,3.2584933e-15,0.0000000
1786.6288,3.2520599e-15,0.0000000
1787.6290,3.2457812e-15,0.0000000
1788.6291,3.2399052e-15,0.0000000
1789.6293,3.2339558e-15,0.0000000
1790.6295,3.2276427e-15,0.0000000
1791.6297,3.2221103e-15,0.0000000
1792.6299,3.2153979e-15,0.0000000
1793.6301,3.2099359e-15,0.0000000
1794.6303,3.2035981e-15,0.0000000
1795.6305,3.1970674e-15,0.0000000
1796.6307,3.1917869e-15,0.0000000
1797.6309,3.1850589e-15,0.0000000
1798.6311,3.1796720e-15,0.0000000
1799.6313,3.1734634e-15,0.0000000
1800.6315,3.1676025e-15,0.0000000
1801.6317,3.1615708e-15,0.0000000
1802.6319,3.1555777e-15,0.0000000
1803.6321,3.1494785e-15,0.0000000
1804.6323,3.1437673e-15,0.0000000
1805.6325,3.1379675e-15,0.0000000
1806.6327,3.1314477e-15,0.0000000
1807.6329,3.1264350e-15,0.0000000
1808.6331,3.1198385e-15,0.0000000
1809.6333,3.1148740e-15,0.0000000
1810.6335,3.1082789e-15,0.0000000
1811.6337,3.1021925e-15,0.0000000
1812.6339,3.0968040e-15,0.0000000
1813.6341,3.0910100e-15,0.0000000
1814.6343,3.0852862e-15,0.0000000
1815.6345,3.0790514e-15,0.0000000
1816.6347,3.0737872e-15,0.0000000
1817.6349,3.0678872e-15,0.0000000
1818.6351,3.0618663e-15,0.0000000
1819.6353,3.0565392e-15,0.0000000
1820.6355,3.0499181e-15,0.0000000
1821.6357,3.0450848e-15,0.0000000
1822.6359,3.0385125e-15,0.0000000
1823.6361,3.0335699e-15,0.0000000
1824.6363,3.0270488e-15,0.0000000
1825.6365,3.0221547e-15,0.0000000
1826.6367,3.0156620e-15,0.0000000
1827.6369,3.0106852e-15,0.0000000
1828.6371,3.0044941e-15,0.0000000
1829.6373,2.9992377e-15,0.0000000
1830.6375,2.9933799e-15,0.0000000
1831.6377,2.9877995e-15,0.0000000
1832.6379,2.9820705e-15,0.0000000
1833.6381,2.9763453e-15,0.0000000
1834.6383,2.9706711e-15,0.0000000
1835.6386,2.9653141e-15,0.0000000
1836.6388,2.9593367e-15,0.0000000
1837.6390,2.9543388e-15,0.0000000
1838.6392,2.9486087e-15,0.0000000
1839.6394,2.9429732e-15,0.0000000
1840.6396,2.9379050e-15,0.0000000
1841.6398,2.9316260e-15,0.0000000
1842.6400,2.9268541e-15,0.0000000
1843.6402,2.9204285e-15,0.0000000
1844.6404,2.9156927e-15,0.0000000
1845.6406,2.9093537e-15,0.0000000
1846.6408,2.9045397e-15,0.0000000
1847.6410,2.8989276e-15,0.0000000
1848.6412,2.8933716e-15,0.0000000
1849.6414,2.8877697e-15,0.0000000
1850.6416,2.8824289e-15,0.0000000
1851.6418,2.8765801e-15,0.0000000
1852.6420,2.8718569e-15,0.0000000
1853.6422,2.8664659e-15,0.0000000
1854.6424,2.8606925e-15,0.0000000
1855.6426,2.8555575e-15,0.0000000
1856.6428,2.8496208e-15,0.0000000
1857.6431,2.8448743e-15,0.0000000
1858.6433,2.8390841e-15,0.0000000
1859.6435,2.8337344e-15,0.0000000
1860.6437,2.8290186e-15,0.0000000
1861.6439,2.8228412e-15,0.0000000
1862.6441,2.8178919e-15,0.0000000
1863.6443,2.8127640e-15,0.0000000
1864.6445,2.8069139e-15,0.0000000
1865.6447,2.8020923e-15,0.0000000
1866.6449,2.7965267e-15,0.0000000
1867.6451,2.7910739e-15,0.0000000
1868.6453,2.7860096e-15,0.0000000
1869.6455,2.7806639e-15,0.0000000
1870.6457,2.7759725e-15,0.0000000
1871.6460,2.7701199e-15,0.0000000
1872.6462,2.7649093e-15,0.0000000
1873.6464,2.7601038e-15,0.0000000
1874.6466,2.7546654e-15,0.0000000
1875.6468,2.7491005e-15,0.0000000
1876.6470,2.7444330e-15,0.0000000
1877.6472,2.7387358e-15,0.0000000
1878.6474,2.7334092e-15,0.0000000
1879.6476,2.7286447e-15,0.0000000
1880.6478,2.7233502e-15,0.0000000
1881.6480,2.7183502e-15,0.0000000
1882.6482,2.7129305e-15,0.0000000
1883.6485,2.7082205e-15,0.0000000
1884.6487,2.7026282e-15,0.0000000
1885.6489,2.6976035e-15,0.0000000
1886.6491,2.6926115e-15,0.0000000
1887.6493,2.6871467e-15,0.0000000
1888.6495,2.6825536e-15,0.0000000
1889.6497,2.6769988e-15,0.0000000
1890.6499,2.6717489e-15,0.0000000
1891.6501,2.6671589e-15,0.0000000
1892.6503,2.6621759e-15,0.0000000
1893.6506,2.6564965e-15,0.0000000
1894.6508,2.6517946e-15,0.0000000
1895.6510,2.6471998e-15,0.0000000
1896.6512,2.6416415e-15,0.0000000
1897.6514,2.6363957e-15,0.0000000
1898.6516,2.6318791e-15,0.0000000
1899.6518,2.6268318e-15,0.0000000
1900.6520,2.6211353e-15,0.0000000
1901.6522,2.6164704e-15,0.0000000
1902.6525,2.6119250e-15,0.0000000
1903.6527,2.6064698e-15,0.0000000
1904.6529,2.6014062e-15,0.0000000
1905.6531,2.5965529e-15,0.0000000
1906.6533,2.5916115e-15,0.0000000
1907.6535,2.5866592e-15,0.0000000
1908.6537,2.5820149e-15,0.0000000
1909.6539,2.5768873e-15,0.0000000
1910.6541,2.5719838e-15,0.0000000
1911.6544,2.5666914e-15,0.0000000
1912.6546,2.5621471e-15,0.0000000
1913.6548,2.5575765e-15,0.0000000
1914.6550,2.5530537e-15,0.0000000
1915.6552,2.5468209e-15,0.0000000
1916.6554,2.5422858e-15,0.0000000
1917.6556,2.5377222e-15,0.0000000
1918.6558,2.5331975e-15,0.0000000
1919.6561,2.5277345e-15,0.0000000
1920.6563,2.5229165e-15,0.0000000
1921.6565,2.5180443e-15,0.0000000
1922.6567,2.5133579e-15,0.0000000
1923.6569,2.5088236e-15,0.0000000
1924.6571,2.5034261e-15,0.0000000
1925.6573,2.4989405e-15,0.0000000
1926.6576,2.4941574e-15,0.0000000
1927.6578,2.4894237e-15,0.0000000
1928.6580,2.4848645e-15,0.0000000
1929.6582,2.4799444e-15,0.0000000
1930.6584,2.4749504e-15,0.0000000
1931.6586,2.4701278e-15,0.0000000
1932.6588,2.4655630e-15,0.0000000
1933.6591,2.4608489e-15,0.0000000
1934.6593,2.4558923e-15,0.0000000
1935.6595,2.4510420e-15,0.0000000
1936.6597,2.4464811e-15,0.0000000
