wave,flux,fluxerr
135.05642,1.1830058e-13,0.0000000
135.15643,1.1804261e-13,0.0000000
135.25644,1.1779414e-13,0.0000000
135.35644,1.1755207e-13,0.0000000
135.45645,1.1731395e-13,0.0000000
135.55646,1.1706320e-13,0.0000000
135.65647,1.1682881e-13,0.0000000
135.75648,1.1657602e-13,0.0000000
135.85648,1.1634357e-13,0.0000000
135.95649,1.1610682e-13,0.0000000
136.05650,1.1585776e-13,0.0000000
136.15651,1.1562270e-13,0.0000000
136.25652,1.1538486e-13,0.0000000
136.35652,1.1514787e-13,0.0000000
136.45653,1.1489646e-13,0.0000000
136.55654,1.1466114e-13,0.0000000
136.65655,1.1442224e-13,0.0000000
136.75656,1.1418559e-13,0.0000000
136.85657,1.1394600e-13,0.0000000
136.95657,1.1371150e-13,0.0000000
137.05658,1.1347838e-13,0.0000000
137.15659,1.1324468e-13,0.0000000
137.25660,1.1300550e-13,0.0000000
137.35661,1.1276789e-13,0.0000000
137.45662,1.1252942e-13,0.0000000
137.55663,1.1229506e-13,0.0000000
137.65663,1.1206525e-13,0.0000000
137.75664,1.1183513e-13,0.0000000
137.85665,1.1159882e-13,0.0000000
137.95666,1.1137737e-13,0.0000000
138.05667,1.1114179e-13,0.0000000
138.15668,1.1090160e-13,0.0000000
138.25669,1.1066514e-13,0.0000000
138.35670,1.1043692e-13,0.0000000
138.45671,1.1021269e-13,0.0000000
138.55671,1.0997780e-13,0.0000000
138.65672,1.0974218e-13,0.0000000
138.75673,1.0951908e-13,0.0000000
138.85674,1.0929378e-13,0.0000000
138.95675,1.0906823e-13,0.0000000
139.05676,1.0884279e-13,0.0000000
139.15677,1.0862321e-13,0.0000000
139.25678,1.0838649e-13,0.0000000
139.35679,1.0815750e-13,0.0000000
139.45680,1.0793727e-13,0.0000000
139.55681,1.0770743e-13,0.0000000
139.65682,1.0748143e-13,0.0000000
139.75683,1.0727239e-13,0.0000000
139.85684,1.0704212e-13,0.0000000
139.95685,1.0681273e-13,0.0000000
140.05686,1.0659670e-13,0.0000000
140.15687,1.0637480e-13,0.0000000
140.25688,1.0615499e-13,0.0000000
140.35689,1.0592547e-13,0.0000000
140.45690,1.0571840e-13,0.0000000
140.55691,1.0548396e-13,0.0000000
140.65692,1.0527779e-13,0.0000000
140.75693,1.0505406e-13,0.0000000
140.85694,1.0483246e-13,0.0000000
140.95695,1.0461052e-13,0.0000000
141.05696,1.0439184e-13,0.0000000
141.15697,1.0419185e-13,0.0000000
141.25698,1.0395275e-13,0.0000000
141.35699,1.0374864e-13,0.0000000
141.45700,1.0353131e-13,0.0000000
141.55701,1.0331493e-13,0.0000000
141.65702,1.0310702e-13,0.0000000
141.75703,1.0289798e-13,0.0000000
141.85704,1.0266727e-13,0.0000000
141.95705,1.0246353e-13,0.0000000
142.05706,1.0225170e-13,0.0000000
142.15707,1.0203211e-13,0.0000000
142.25708,1.0181895e-13,0.0000000
142.35709,1.0161595e-13,0.0000000
142.45711,1.0140482e-13,0.0000000
142.55712,1.0119072e-13,0.0000000
142.65713,1.0098730e-13,0.0000000
142.75714,1.0077421e-13,0.0000000
142.85715,1.0057052e-13,0.0000000
142.95716,1.0036014e-13,0.0000000
143.05717,1.0014339e-13,0.0000000
143.15718,9.9945564e-14,0.0000000
143.25719,9.9740840e-14,0.0000000
143.35720,9.9525685e-14,0.0000000
143.45722,9.9310804e-14,0.0000000
143.55723,9.9109481e-14,0.0000000
143.65724,9.8911181e-14,0.0000000
143.75725,9.8704464e-14,0.0000000
143.85726,9.8499504e-14,0.0000000
143.95727,9.8301438e-14,0.0000000
144.05728,9.8102867e-14,0.0000000
144.15729,9.7902482e-14,0.0000000
144.25731,9.7694217e-14,0.0000000
144.35732,9.7480732e-14,0.0000000
144.45733,9.7296576e-14,0.0000000
144.55734,9.7084521e-14,0.0000000
144.65735,9.6893592e-14,0.0000000
144.75736,9.6686476e-14,0.0000000
144.85738,9.6491052e-14,0.0000000
144.95739,9.6286306e-14,0.0000000
145.05740,9.6089087e-14,0.0000000
145.15741,9.5894698e-14,0.0000000
145.25742,9.5698488e-14,0.0000000
145.35743,9.5501038e-14,0.0000000
145.45745,9.5301078e-14,0.0000000
145.55746,9.5107162e-14,0.0000000
145.65747,9.4911460e-14,0.0000000
145.75748,9.4718653e-14,0.0000000
145.85749,9.4520344e-14,0.0000000
145.95751,9.4321890e-14,0.0000000
146.05752,9.4128637e-14,0.0000000
146.15753,9.3932187e-14,0.0000000
146.25754,9.3737229e-14,0.0000000
146.35756,9.3553585e-14,0.0000000
146.45757,9.3365343e-14,0.0000000
146.55758,9.3166106e-14,0.0000000
146.65759,9.2969935e-14,0.0000000
146.75760,9.2783866e-14,0.0000000
146.85762,9.2589827e-14,0.0000000
146.95763,9.2408850e-14,0.0000000
147.05764,9.2221292e-14,0.0000000
147.15765,9.2021204e-14,0.0000000
147.25767,9.1832228e-14,0.0000000
147.35768,9.1645702e-14,0.0000000
147.45769,9.1464727e-14,0.0000000
147.55770,9.1273018e-14,0.0000000
147.65772,9.1072252e-14,0.0000000
147.75773,9.0902367e-14,0.0000000
147.85774,9.0714697e-14,0.0000000
147.95776,9.0521661e-14,0.0000000
148.05777,9.0343436e-14,0.0000000
148.15778,9.0160062e-14,0.0000000
148.25779,8.9962797e-14,0.0000000
148.35781,8.9791046e-14,0.0000000
148.45782,8.9603906e-14,0.0000000
148.55783,8.9414716e-14,0.0000000
148.65785,8.9249320e-14,0.0000000
148.75786,8.9058367e-14,0.0000000
148.85787,8.8871928e-14,0.0000000
148.95788,8.8696758e-14,0.0000000
149.05790,8.8512103e-14,0.0000000
149.15791,8.8334857e-14,0.0000000
149.25792,8.8156580e-14,0.0000000
149.35794,8.7970549e-14,0.0000000
149.45795,8.7798766e-14,0.0000000
149.55796,8.7611074e-14,0.0000000
149.65798,8.7428535e-14,0.0000000
149.75799,8.7254200e-14,0.0000000
149.85800,8.7074800e-14,0.0000000
149.95802,8.6901147e-14,0.0000000
150.05803,8.6720774e-14,0.0000000
150.15804,8.6554093e-14,0.0000000
150.25806,8.6370285e-14,0.0000000
150.35807,8.6201556e-14,0.0000000
150.45809,8.6015109e-14,0.0000000
150.55810,8.5850077e-14,0.0000000
150.65811,8.5668676e-14,0.0000000
150.75813,8.5507834e-14,0.0000000
150.85814,8.5337230e-14,0.0000000
150.95815,8.5149759e-14,0.0000000
151.05817,8.4990172e-14,0.0000000
151.15818,8.4800976e-14,0.0000000
151.25819,8.4636103e-14,0.0000000
151.35821,8.4474461e-14,0.0000000
151.45822,8.4293884e-14,0.0000000
151.55824,8.4123674e-14,0.0000000
151.65825,8.3944963e-14,0.0000000
151.75826,8.3788727e-14,0.0000000
151.85828,8.3627129e-14,0.0000000
151.95829,8.3439797e-14,0.0000000
152.05831,8.3278118e-14,0.0000000
152.15832,8.3111948e-14,0.0000000
152.25833,8.2931087e-14,0.0000000
152.35835,8.2775767e-14,0.0000000
152.45836,8.2613787e-14,0.0000000
152.55838,8.2431826e-14,0.0000000
152.65839,8.2278484e-14,0.0000000
152.75841,8.2118591e-14,0.0000000
152.85842,8.1936612e-14,0.0000000
152.95843,8.1782027e-14,0.0000000
153.05845,8.1613452e-14,0.0000000
153.15846,8.1437744e-14,0.0000000
153.25848,8.1282057e-14,0.0000000
153.35849,8.1122903e-14,0.0000000
153.45851,8.0972289e-14,0.0000000
153.55852,8.0785731e-14,0.0000000
153.65854,8.0634742e-14,0.0000000
153.75855,8.0478747e-14,0.0000000
153.85856,8.0316474e-14,0.0000000
153.95858,8.0144404e-14,0.0000000
154.05859,7.9976206e-14,0.0000000
154.15861,7.9824573e-14,0.0000000
154.25862,7.9668695e-14,0.0000000
154.35864,7.9513312e-14,0.0000000
154.45865,7.9356314e-14,0.0000000
154.55867,7.9182170e-14,0.0000000
154.65868,7.9029525e-14,0.0000000
154.75870,7.8866007e-14,0.0000000
154.85871,7.8714022e-14,0.0000000
154.95873,7.8562067e-14,0.0000000
155.05874,7.8399034e-14,0.0000000
155.15876,7.8244962e-14,0.0000000
155.25877,7.8093352e-14,0.0000000
155.35879,7.7918569e-14,0.0000000
155.45880,7.7766771e-14,0.0000000
155.55882,7.7604544e-14,0.0000000
155.65883,7.7450176e-14,0.0000000
155.75885,7.7303614e-14,0.0000000
155.85886,7.7153001e-14,0.0000000
155.95888,7.7004086e-14,0.0000000
156.05889,7.6855234e-14,0.0000000
156.15891,7.6697444e-14,0.0000000
156.25892,7.6546929e-14,0.0000000
156.35894,7.6396246e-14,0.0000000
156.45895,7.6245732e-14,0.0000000
156.55897,7.6095970e-14,0.0000000
156.65898,7.5946167e-14,0.0000000
156.75900,7.5792900e-14,0.0000000
156.85901,7.5618706e-14,0.0000000
156.95903,7.5467682e-14,0.0000000
157.05904,7.5316406e-14,0.0000000
157.15906,7.5165226e-14,0.0000000
157.25908,7.5019614e-14,0.0000000
157.35909,7.4868766e-14,0.0000000
157.45911,7.4741763e-14,0.0000000
157.55912,7.4591733e-14,0.0000000
157.65914,7.4441494e-14,0.0000000
157.75915,7.4292878e-14,0.0000000
157.85917,7.4147706e-14,0.0000000
157.95918,7.4003252e-14,0.0000000
158.05920,7.3851278e-14,0.0000000
158.15922,7.3699166e-14,0.0000000
158.25923,7.3547969e-14,0.0000000
158.35925,7.3416395e-14,0.0000000
158.45926,7.3264823e-14,0.0000000
158.55928,7.3117686e-14,0.0000000
158.65930,7.2966850e-14,0.0000000
158.75931,7.2840121e-14,0.0000000
158.85933,7.2697032e-14,0.0000000
158.95934,7.2545848e-14,0.0000000
159.05936,7.2395095e-14,0.0000000
159.15937,7.2261096e-14,0.0000000
159.25939,7.2110984e-14,0.0000000
159.35941,7.1985881e-14,0.0000000
159.45942,7.1834410e-14,0.0000000
159.55944,7.1690213e-14,0.0000000
159.65945,7.1548524e-14,0.0000000
159.75947,7.1399580e-14,0.0000000
159.85949,7.1260455e-14,0.0000000
159.95950,7.1120032e-14,0.0000000
160.05952,7.0994663e-14,0.0000000
160.15954,7.0845947e-14,0.0000000
160.25955,7.0704837e-14,0.0000000
160.35957,7.0570683e-14,0.0000000
160.45958,7.0421766e-14,0.0000000
160.55960,7.0295229e-14,0.0000000
160.65962,7.0156258e-14,0.0000000
160.75963,7.0019660e-14,0.0000000
160.85965,6.9874588e-14,0.0000000
160.95967,6.9731133e-14,0.0000000
161.05968,6.9604983e-14,0.0000000
161.15970,6.9470580e-14,0.0000000
161.25971,6.9328580e-14,0.0000000
161.35973,6.9181423e-14,0.0000000
161.45975,6.9070765e-14,0.0000000
161.55976,6.8925478e-14,0.0000000
161.65978,6.8779155e-14,0.0000000
161.75980,6.8652829e-14,0.0000000
161.85981,6.8525088e-14,0.0000000
161.95983,6.8378430e-14,0.0000000
162.05985,6.8240210e-14,0.0000000
162.15986,6.8120916e-14,0.0000000
162.25988,6.7980109e-14,0.0000000
162.35990,6.7843048e-14,0.0000000
162.45991,6.7725299e-14,0.0000000
162.55993,6.7588256e-14,0.0000000
162.65995,6.7445965e-14,0.0000000
162.75996,6.7322052e-14,0.0000000
162.85998,6.7186105e-14,0.0000000
162.96000,6.7064194e-14,0.0000000
163.06001,6.6930607e-14,0.0000000
163.16003,6.6789246e-14,0.0000000
163.26005,6.6675188e-14,0.0000000
163.36007,6.6533443e-14,0.0000000
163.46008,6.6400118e-14,0.0000000
163.56010,6.6281884e-14,0.0000000
163.66012,6.6146930e-14,0.0000000
163.76013,6.6009238e-14,0.0000000
163.86015,6.5900900e-14,0.0000000
163.96017,6.5759014e-14,0.0000000
164.06018,6.5648925e-14,0.0000000
164.16020,6.5508559e-14,0.0000000
164.26022,6.5377384e-14,0.0000000
164.36024,6.5260718e-14,0.0000000
164.46025,6.5126905e-14,0.0000000
164.56027,6.5004263e-14,0.0000000
164.66029,6.4877096e-14,0.0000000
164.76030,6.4737158e-14,0.0000000
164.86032,6.4628591e-14,0.0000000
164.96034,6.4487344e-14,0.0000000
165.06036,6.4377488e-14,0.0000000
165.16037,6.4243750e-14,0.0000000
165.26039,6.4127671e-14,0.0000000
165.36041,6.3999850e-14,0.0000000
165.46043,6.3868692e-14,0.0000000
165.56044,6.3751514e-14,0.0000000
165.66046,6.3626158e-14,0.0000000
165.76048,6.3499700e-14,0.0000000
165.86049,6.3381495e-14,0.0000000
165.96051,6.3261651e-14,0.0000000
166.06053,6.3127949e-14,0.0000000
166.16055,6.3017642e-14,0.0000000
166.26056,6.2905312e-14,0.0000000
166.36058,6.2768505e-14,0.0000000
166.46060,6.2656861e-14,0.0000000
166.56062,6.2527146e-14,0.0000000
166.66064,6.2412284e-14,0.0000000
166.76065,6.2279896e-14,0.0000000
166.86067,6.2175729e-14,0.0000000
166.96069,6.2035876e-14,0.0000000
167.06071,6.1922663e-14,0.0000000
167.16072,6.1817589e-14,0.0000000
167.26074,6.1691114e-14,0.0000000
167.36076,6.1567489e-14,0.0000000
167.46078,6.1444417e-14,0.0000000
167.56079,6.1341698e-14,0.0000000
167.66081,6.1210221e-14,0.0000000
167.76083,6.1096179e-14,0.0000000
167.86085,6.0968207e-14,0.0000000
167.96087,6.0864852e-14,0.0000000
168.06088,6.0744808e-14,0.0000000
168.16090,6.0620906e-14,0.0000000
168.26092,6.0515536e-14,0.0000000
168.36094,6.0391455e-14,0.0000000
168.46095,6.0284306e-14,0.0000000
168.56097,6.0150866e-14,0.0000000
168.66099,6.0045156e-14,0.0000000
168.76101,5.9928545e-14,0.0000000
168.86103,5.9813155e-14,0.0000000
168.96104,5.9711645e-14,0.0000000
169.06106,5.9590884e-14,0.0000000
169.16108,5.9466523e-14,0.0000000
169.26110,5.9360745e-14,0.0000000
169.36112,5.9236380e-14,0.0000000
169.46114,5.9133297e-14,0.0000000
169.56115,5.9019337e-14,0.0000000
169.66117,5.8901974e-14,0.0000000
169.76119,5.8800127e-14,0.0000000
169.86121,5.8675034e-14,0.0000000
169.96123,5.8554222e-14,0.0000000
170.06124,5.8452278e-14,0.0000000
170.16126,5.8350193e-14,0.0000000
170.26128,5.8219111e-14,0.0000000
170.36130,5.8117094e-14,0.0000000
170.46132,5.8009457e-14,0.0000000
170.56134,5.7889731e-14,0.0000000
170.66135,5.7785019e-14,0.0000000
170.76137,5.7682288e-14,0.0000000
170.86139,5.7562434e-14,0.0000000
170.96141,5.7451884e-14,0.0000000
171.06143,5.7352918e-14,0.0000000
171.16145,5.7250666e-14,0.0000000
171.26146,5.7119271e-14,0.0000000
171.36148,5.7016958e-14,0.0000000
171.46150,5.6916404e-14,0.0000000
171.56152,5.6806404e-14,0.0000000
171.66154,5.6694595e-14,0.0000000
171.76156,5.6590578e-14,0.0000000
171.86158,5.6489935e-14,0.0000000
171.96159,5.6367295e-14,0.0000000
172.06161,5.6267888e-14,0.0000000
172.16163,5.6165631e-14,0.0000000
172.26165,5.6050089e-14,0.0000000
172.36167,5.5940263e-14,0.0000000
172.46169,5.5840697e-14,0.0000000
172.56171,5.5744405e-14,0.0000000
172.66172,5.5635323e-14,0.0000000
172.76174,5.5519044e-14,0.0000000
172.86176,5.5418318e-14,0.0000000
172.96178,5.5316618e-14,0.0000000
173.06180,5.5216837e-14,0.0000000
173.16182,5.5093905e-14,0.0000000
173.26184,5.4992107e-14,0.0000000
173.36186,5.4894509e-14,0.0000000
173.46187,5.4793676e-14,0.0000000
173.56189,5.4673084e-14,0.0000000
173.66191,5.4568815e-14,0.0000000
173.76193,5.4468777e-14,0.0000000
173.86195,5.4370922e-14,0.0000000
173.96197,5.4285185e-14,0.0000000
174.06199,5.4168984e-14,0.0000000
174.16201,5.4065001e-14,0.0000000
174.26203,5.3961510e-14,0.0000000
174.36204,5.3858372e-14,0.0000000
174.46206,5.3758913e-14,0.0000000
174.56208,5.3658761e-14,0.0000000
174.66210,5.3555070e-14,0.0000000
174.76212,5.3451239e-14,0.0000000
174.86214,5.3351104e-14,0.0000000
174.96216,5.3250839e-14,0.0000000
175.06218,5.3150489e-14,0.0000000
175.16220,5.3057342e-14,0.0000000
175.26222,5.2966070e-14,0.0000000
175.36224,5.2865677e-14,0.0000000
175.46225,5.2741651e-14,0.0000000
175.56227,5.2644127e-14,0.0000000
175.66229,5.2545332e-14,0.0000000
175.76231,5.2459466e-14,0.0000000
175.86233,5.2360624e-14,0.0000000
175.96235,5.2260797e-14,0.0000000
176.06237,5.2159370e-14,0.0000000
176.16239,5.2055870e-14,0.0000000
176.26241,5.1965422e-14,0.0000000
176.36243,5.1868441e-14,0.0000000
176.46245,5.1770271e-14,0.0000000
176.56247,5.1672418e-14,0.0000000
176.66249,5.1575046e-14,0.0000000
176.76251,5.1490649e-14,0.0000000
176.86252,5.1386965e-14,0.0000000
176.96254,5.1283494e-14,0.0000000
177.06256,5.1183327e-14,0.0000000
177.16258,5.1092879e-14,0.0000000
177.26260,5.0995433e-14,0.0000000
177.36262,5.0900423e-14,0.0000000
177.46264,5.0802246e-14,0.0000000
177.56266,5.0717260e-14,0.0000000
177.66268,5.0617661e-14,0.0000000
177.76270,5.0515389e-14,0.0000000
177.86272,5.0420448e-14,0.0000000
177.96274,5.0333056e-14,0.0000000
178.06276,5.0232996e-14,0.0000000
178.16278,5.0135721e-14,0.0000000
178.26280,5.0050335e-14,0.0000000
178.36282,4.9950997e-14,0.0000000
178.46284,4.9856188e-14,0.0000000
178.56286,4.9768844e-14,0.0000000
178.66288,4.9671047e-14,0.0000000
178.76290,4.9573906e-14,0.0000000
178.86291,4.9488833e-14,0.0000000
178.96293,4.9393831e-14,0.0000000
179.06295,4.9301360e-14,0.0000000
179.16297,4.9211832e-14,0.0000000
179.26299,4.9114125e-14,0.0000000
179.36301,4.9028403e-14,0.0000000
179.46303,4.8934307e-14,0.0000000
179.56305,4.8836839e-14,0.0000000
179.66307,4.8754345e-14,0.0000000
179.76309,4.8656431e-14,0.0000000
179.86311,4.8569006e-14,0.0000000
179.96313,4.8478132e-14,0.0000000
180.06315,4.8385075e-14,0.0000000
180.16317,4.8296998e-14,0.0000000
180.26319,4.8207067e-14,0.0000000
180.36321,4.8112700e-14,0.0000000
180.46323,4.8029956e-14,0.0000000
180.56325,4.7936349e-14,0.0000000
180.66327,4.7842151e-14,0.0000000
180.76329,4.7761120e-14,0.0000000
180.86331,4.7665137e-14,0.0000000
180.96333,4.7584857e-14,0.0000000
181.06335,4.7489023e-14,0.0000000
181.16337,4.7395620e-14,0.0000000
181.26339,4.7315223e-14,0.0000000
181.36341,4.7222372e-14,0.0000000
181.46343,4.7139868e-14,0.0000000
181.56345,4.7046688e-14,0.0000000
181.66347,4.6965448e-14,0.0000000
181.76349,4.6874180e-14,0.0000000
181.86351,4.6785166e-14,0.0000000
181.96353,4.6700794e-14,0.0000000
182.06355,4.6604496e-14,0.0000000
182.16357,4.6527303e-14,0.0000000
182.26359,4.6433216e-14,0.0000000
182.36361,4.6353135e-14,0.0000000
182.46363,4.6259612e-14,0.0000000
182.56365,4.6181739e-14,0.0000000
182.66367,4.6087931e-14,0.0000000
182.76369,4.6008376e-14,0.0000000
182.86371,4.5915285e-14,0.0000000
182.96373,4.5836245e-14,0.0000000
183.06375,4.5744912e-14,0.0000000
183.16377,4.5664563e-14,0.0000000
183.26379,4.5574049e-14,0.0000000
183.36381,4.5492665e-14,0.0000000
183.46383,4.5404448e-14,0.0000000
183.56386,4.5324892e-14,0.0000000
183.66388,4.5234161e-14,0.0000000
183.76390,4.5154801e-14,0.0000000
183.86392,4.5068836e-14,0.0000000
183.96394,4.4985544e-14,0.0000000
184.06396,4.4905952e-14,0.0000000
184.16398,4.4815068e-14,0.0000000
184.26400,4.4738991e-14,0.0000000
184.36402,4.4646938e-14,0.0000000
184.46404,4.4571243e-14,0.0000000
184.56406,4.4481317e-14,0.0000000
184.66408,4.4405275e-14,0.0000000
184.76410,4.4316503e-14,0.0000000
184.86412,4.4237428e-14,0.0000000
184.96414,4.4149820e-14,0.0000000
185.06416,4.4072233e-14,0.0000000
185.16418,4.3982350e-14,0.0000000
185.26420,4.3907675e-14,0.0000000
185.36422,4.3830218e-14,0.0000000
185.46424,4.3740620e-14,0.0000000
185.56426,4.3665330e-14,0.0000000
185.66428,4.3575853e-14,0.0000000
185.76431,4.3501292e-14,0.0000000
185.86433,4.3417095e-14,0.0000000
185.96435,4.3335374e-14,0.0000000
186.06437,4.3261534e-14,0.0000000
186.16439,4.3172409e-14,0.0000000
186.26441,4.3095723e-14,0.0000000
186.36443,4.3015714e-14,0.0000000
186.46445,4.2932342e-14,0.0000000
186.56447,4.2858215e-14,0.0000000
186.66449,4.2771573e-14,0.0000000
186.76451,4.2694905e-14,0.0000000
186.86453,4.2616018e-14,0.0000000
186.96455,4.2532204e-14,0.0000000
187.06457,4.2459831e-14,0.0000000
187.16460,4.2376965e-14,0.0000000
187.26462,4.2296237e-14,0.0000000
187.36464,4.2222062e-14,0.0000000
187.46466,4.2140602e-14,0.0000000
187.56468,4.2058746e-14,0.0000000
187.66470,4.1986463e-14,0.0000000
187.76472,4.1902444e-14,0.0000000
187.86474,4.1823423e-14,0.0000000
187.96476,4.1749277e-14,0.0000000
188.06478,4.1667233e-14,0.0000000
188.16480,4.1590473e-14,0.0000000
188.26482,4.1515207e-14,0.0000000
188.36485,4.1442036e-14,0.0000000
188.46487,4.1355055e-14,0.0000000
188.56489,4.1282376e-14,0.0000000
188.66491,4.1208648e-14,0.0000000
188.76493,4.1123549e-14,0.0000000
188.86495,4.1051798e-14,0.0000000
188.96497,4.0974965e-14,0.0000000
189.06499,4.0893327e-14,0.0000000
189.16501,4.0821257e-14,0.0000000
189.26503,4.0748522e-14,0.0000000
189.36506,4.0664638e-14,0.0000000
189.46508,4.0592461e-14,0.0000000
189.56510,4.0520929e-14,0.0000000
189.66512,4.0437246e-14,0.0000000
189.76514,4.0362758e-14,0.0000000
189.86516,4.0293058e-14,0.0000000
189.96518,4.0214355e-14,0.0000000
190.06520,4.0135152e-14,0.0000000
190.16522,4.0063798e-14,0.0000000
190.26525,3.9993154e-14,0.0000000
190.36527,3.9909069e-14,0.0000000
190.46529,3.9836188e-14,0.0000000
190.56531,3.9764354e-14,0.0000000
190.66533,3.9689299e-14,0.0000000
190.76535,3.9612692e-14,0.0000000
190.86537,3.9540601e-14,0.0000000
190.96539,3.9469018e-14,0.0000000
191.06541,3.9395561e-14,0.0000000
191.16544,3.9313863e-14,0.0000000
191.26546,3.9244869e-14,0.0000000
191.36548,3.9173905e-14,0.0000000
191.46550,3.9104957e-14,0.0000000
191.56552,3.9018057e-14,0.0000000
191.66554,3.8948718e-14,0.0000000
191.76556,3.8878251e-14,0.0000000
191.86558,3.8809452e-14,0.0000000
191.96561,3.8725359e-14,0.0000000
192.06563,3.8655714e-14,0.0000000
192.16565,3.8585466e-14,0.0000000
192.26567,3.8513891e-14,0.0000000
192.36569,3.8444969e-14,0.0000000
192.46571,3.8363126e-14,0.0000000
192.56573,3.8294737e-14,0.0000000
192.66576,3.8224766e-14,0.0000000
192.76578,3.8152919e-14,0.0000000
192.86580,3.8084181e-14,0.0000000
192.96582,3.8010881e-14,0.0000000
193.06584,3.7935969e-14,0.0000000
193.16586,3.7864051e-14,0.0000000
193.26588,3.7795871e-14,0.0000000
193.36591,3.7724444e-14,0.0000000
193.46593,3.7650367e-14,0.0000000
193.56595,3.7578006e-14,0.0000000
193.66597,3.7510215e-14,0.0000000
